time,x,y,z,theta
43.004,-0.7000234411690645,2.463946287516263e-05,-0.0010013929665589026,0.0003792026434735205
43.037,-0.7000234443967772,2.4658429499414438e-05,-0.0010013929665877164,0.0003795017440085337
43.069,-0.7000234476245033,2.4677396165710745e-05,-0.0010013929666165163,0.0003798008452258823
43.104,-0.7000234509500537,2.469693762339888e-05,-0.0010013929666462078,0.0003801090108294402
43.137,-0.7000234541778074,2.4715904375002986e-05,-0.0010013929666750111,0.0003804081134312976
43.17,-0.7000234574055747,2.4734871168680255e-05,-0.0010013929667038145,0.00038070721671592525
43.204,-0.7000234607311674,2.4754412757606554e-05,-0.0010013929667334956,0.0003810153844493668
43.237,-0.7000234639589621,2.4773379636550042e-05,-0.0010013929667623094,0.0003813144891178773
43.27,-0.7000234671867706,2.4792346557528035e-05,-0.001001392966791123,0.00038161359446857126
43.304,-0.7000234705124055,2.4811888277663864e-05,-0.0010013929668207973,0.0003819217643314658
43.337,-0.7000234737402412,2.4830855283964133e-05,-0.0010013929668496006,0.0003822208710668945
43.37,-0.7000234769680908,2.4849822332295932e-05,-0.0010013929668784179,0.00038251997848446186
43.404,-0.7000234802937679,2.486936418358353e-05,-0.0010013929669080955,0.00038282815047593254
43.437,-0.7000234835216449,2.4888331317254322e-05,-0.0010013929669369093,0.0003831272592784849
43.47,-0.7000234867495355,2.4907298492936318e-05,-0.001001392966965716,0.0003834263687628735
43.504,-0.7000234900752551,2.4926840475456482e-05,-0.0010013929669954041,0.00038373454288414643
43.537,-0.7000234933031731,2.494580773653039e-05,-0.001001392967024218,0.0003840336537543213
43.57,-0.7000234965311047,2.496477503952897e-05,-0.0010013929670530386,0.00038433276530502354
43.604,-0.7000234998568666,2.498431715326873e-05,-0.0010013929670827128,0.0003846409415559062
43.637,-0.7000235030848257,2.5003284541569747e-05,-0.0010013929671115127,0.00038494005449104
43.67,-0.7000235063127984,2.5022251971951508e-05,-0.0010013929671403334,0.00038523916810906216
43.704,-0.7000235096386026,2.5041794216900237e-05,-0.0010013929671700145,0.00038554734648939455
43.737,-0.7000235128666028,2.5060761732582593e-05,-0.0010013929671988317,0.0003858464614918263
43.77,-0.7000235160946167,2.507972929036007e-05,-0.0010013929672276385,0.00038614557717736326
43.804,-0.7000235194204631,2.509927166648867e-05,-0.00100139296725733,0.0003864537576867082
43.837,-0.7000235226485044,2.511823930957064e-05,-0.0010013929672861507,0.0003867528747567158
43.871,-0.6997000994965938,2.546523764855716e-05,-0.0010013899999801075,-0.0015528134526562936
43.904,-0.6991632424446602,2.4619891838924626e-05,-0.0010013998516293192,-0.00568587029188193
43.937,-0.6986421454911674,2.165047557538481e-05,-0.0010014018820456543,-0.00969800246962129
43.97,-0.6982316232403022,1.7780109084352847e-05,-0.0010014110043651547,-0.011906719576826619
44.004,-0.6978210428762209,1.3013412300657203e-05,-0.0010014056819789632,-0.014042992159669926
44.037,-0.69742247311694,7.547411709827405e-06,-0.0010014081886707202,-0.01611690098260249
44.07,-0.6970991695826054,2.3626200150363304e-06,-0.0010014165016056474,-0.016500602359421874
44.104,-0.6967728620498302,-2.9779939391840453e-06,-0.0010014098678042017,-0.01680810095246785
44.135,-0.6964560969413168,-8.258005101672097e-06,-0.0010014118621141065,-0.01710675440508162
44.17,-0.6962308053772673,-1.2127711316299164e-05,-0.0010014289473083832,-0.016322618538859406
44.204,-0.6960050786390668,-1.5915603822430403e-05,-0.0010014187229704687,-0.015443851665024806
44.236,-0.6957859529883276,-1.9402165834264833e-05,-0.0010014201431154598,-0.01459093756315081
44.27,-0.695666453693213,-2.1214051851656727e-05,-0.001001434146747044,-0.014117985969125573
44.304,-0.6955472190207161,-2.2964643478703284e-05,-0.0010014216639675395,-0.013661234835343802
44.337,-0.6954314722480657,-2.4611151387950856e-05,-0.0010014225442888346,-0.013217919781481645
44.37,-0.6953528622054447,-2.5705084985141424e-05,-0.0010014209075451391,-0.013306537421268153
44.404,-0.6952726077080682,-2.6734665799532184e-05,-0.001001417275280081,-0.013407663037551155
44.437,-0.69519469925714,-2.774153689445124e-05,-0.0010014178885095794,-0.013505868397562175
44.47,-0.6951015780871367,-2.895670940257457e-05,-0.0010014173586687866,-0.013624696763253551
44.504,-0.6950055040486234,-3.0223251633969706e-05,-0.0010014195317153418,-0.013747602585033923
44.537,-0.694912238326916,-3.1464178837596074e-05,-0.0010014201967914922,-0.013866959573621704
44.57,-0.6945078782894998,-3.69718451070063e-05,-0.0010014215563249468,-0.013835694564002701
44.604,-0.6939091514140763,-4.517555725224515e-05,-0.0010014355417638683,-0.013848790585067603
44.637,-0.6933246623981074,-5.324845960818363e-05,-0.0010014485010374392,-0.013862712622532216
44.67,-0.6923070474501463,-6.730401649928115e-05,-0.001001312102336345,-0.01407326295238538
44.704,-0.6907997023740418,-8.898796348473945e-05,-0.0010014551843095139,-0.014447850574625947
44.737,-0.6893331614124156,-0.0001103496151917621,-0.0010014727893180447,-0.014818906995387082
44.77,-0.6875136379931521,-0.0001372491250797487,-0.0010015014901692126,-0.015215491266083602
44.804,-0.6853996283629505,-0.0001701852033645664,-0.0010015209377907744,-0.015755219627234977
44.837,-0.6833434650412961,-0.0002029997407940849,-0.001001550766557318,-0.01628649307836902
44.87,-0.6810639848733245,-0.00024046460612412498,-0.001001585930514439,-0.01667412520186348
44.904,-0.6785739055430489,-0.0002824506947882686,-0.0010016313305478731,-0.01714534811931938
44.935,-0.6761519828812573,-0.0003244427115198877,-0.0010016781552694767,-0.017605550623247722
44.97,-0.6735463910493651,-0.0003708949324631194,-0.0010017313632059814,-0.018027435593192545
45.004,-0.670828713678952,-0.00042029054550597007,-0.0010017938821104619,-0.018354688165307487
45.037,-0.6681911158245589,-0.00046908128476158084,-0.0010018429333325841,-0.018670324847499458
45.07,-0.6653931349066967,-0.0005218187505558851,-0.00100189621014617,-0.018919598741854157
45.104,-0.6624715910434584,-0.0005772206853245644,-0.0010019369117151393,-0.01898788641672711
45.137,-0.6596367274819217,-0.0006311657756830893,-0.0010019835176387423,-0.019052675492313372
45.17,-0.6566955124905336,-0.000687510917105977,-0.0010016858470135864,-0.019230176479340843
45.204,-0.6536378676007526,-0.0007464748261413819,-0.0010021941928150604,-0.019218678292122718
45.237,-0.6506649994598032,-0.0008033009756797087,-0.0010022323374120623,-0.019305077407495486
45.27,-0.6477060861620477,-0.0008523766194328884,-0.0010015453105191065,-0.01970452796247422
45.304,-0.6446654633132561,-0.0009130186943150324,-0.0010007203172440436,-0.020636608464523292
45.337,-0.6416574122231715,-0.0009758090101583107,-0.0010014260790725815,-0.021582682081063967
45.37,-0.6386033751296667,-0.0010427773057191153,-0.0010012745129908789,-0.022294572187226774
45.404,-0.6353965594030779,-0.0011145328978900148,-0.0010017295660451273,-0.022226598247911164
45.437,-0.6322611607370019,-0.0011837555571745865,-0.0010016828659017221,-0.021844509624664842
45.47,-0.6290708944669041,-0.0012526721703053022,-0.001001615794012322,-0.021181646648383706
45.504,-0.6257767776283616,-0.0013213953603192412,-0.0010015750837140056,-0.02040999918105358
45.537,-0.6225791042003033,-0.0013856690955058718,-0.0010015314748189272,-0.019661633410763945
45.57,-0.6193589920953548,-0.0014486011884051958,-0.0010015021944745454,-0.019389533152149283
45.604,-0.6160402597175975,-0.0015125628297256609,-0.001001464065852633,-0.01911589748835394
45.637,-0.6128185924768607,-0.0015737906428722117,-0.0010014410181676744,-0.01885133353876641
45.67,-0.6095744367126621,-0.0016350315141056581,-0.0010014126259939235,-0.018910287301018236
45.704,-0.6062312507712861,-0.001698354439124615,-0.0010014029494800729,-0.01897385179762687
45.737,-0.6029858178831727,-0.0017600240439453593,-0.0010013982984766329,-0.019036479813242118
45.77,-0.599720200436779,-0.001822162218302346,-0.0010013955039996011,-0.019014483149423687
45.804,-0.596354910353905,-0.001886124007878655,-0.0010014071249372612,-0.01899334532184958
45.837,-0.5930880083275595,-0.001948151736150794,-0.0010014222895670423,-0.018974266945687192
45.87,-0.5898309638036047,-0.0020097350660062303,-0.0010014459120736528,-0.018808357586791072
45.904,-0.5864746740209273,-0.00207262919075852,-0.001001476715281148,-0.0186381301949822
45.937,-0.5832165282231768,-0.002133164695842846,-0.0010015088262761325,-0.018474559066457695
45.97,-0.5799246354849046,-0.002193623729861731,-0.001001555020982224,-0.018175212269253397
46.004,-0.5765318050942677,-0.0022549473424326996,-0.0010015913229532575,-0.017867569149917502
46.037,-0.5732377786972466,-0.0023135506070067345,-0.0010016403370596352,-0.01757160714991722
46.07,-0.5699510366337489,-0.002371030027224476,-0.0010016994620429646,-0.01722489852068384
46.104,-0.5665641539747662,-0.0024291073446806822,-0.0010017657456890816,-0.0168647484390642
46.137,-0.5632769644797239,-0.002484304867774575,-0.0010018218126117834,-0.016513524585669445
46.17,-0.5599857825407037,-0.0025384134369720673,-0.0010018798144784957,-0.01617694870870415
46.204,-0.5565954224806944,-0.002592967063949751,-0.0010019426492161553,-0.015829060330447717
46.237,-0.5533056313962735,-0.0026447557435238453,-0.0010020117402267797,-0.01549110681620684
46.27,-0.550027385503664,-0.002695019972589193,-0.001002141436558003,-0.015164012710415361
46.304,-0.5466558177992132,-0.002744135070631855,-0.0010022058252057188,-0.014903096457071536
46.337,-0.5434247223437056,-0.002774946477458888,-0.0010017389948606993,-0.015154620485886124
46.37,-0.5402400623670632,-0.0028221005212267277,-0.0010012641692971821,-0.0158671895883814
46.404,-0.5369472431142062,-0.002874883628560074,-0.0010012772544886854,-0.01649769758784079
46.437,-0.5337049046968496,-0.002928573914267373,-0.0010014778438472219,-0.016469125939870603
46.47,-0.5304436752681492,-0.0029806374231961166,-0.0010017075501809261,-0.015191278245561535
46.504,-0.5270822228453234,-0.003029778117180637,-0.001001663732515791,-0.0138295817616997
46.537,-0.5238193475584146,-0.0030730790378500823,-0.0010016038703686975,-0.012507253187577769
46.57,-0.5205465062299404,-0.003112651556426782,-0.0010015575758370102,-0.011528641164571323
46.604,-0.5171738999500469,-0.0031500832303281816,-0.0010015125384391053,-0.010522438124061598
46.637,-0.513899943511889,-0.0031831808132386317,-0.0010014796771977315,-0.009546638443217579
46.67,-0.5106203453548239,-0.003213736080501956,-0.0010014532443193766,-0.009011536768299749
46.704,-0.5072407453809487,-0.003243400350051256,-0.001001428792537739,-0.00846293768849187
46.737,-0.5039599844256397,-0.0032704260847112782,-0.0010014113906766653,-0.007931614548312753
46.77,-0.5006839803922508,-0.003295681852344525,-0.0010014027311991691,-0.007408118144122876
46.804,-0.4973081493605809,-0.0033199155817369387,-0.001001398765313459,-0.006870070515371194
46.837,-0.49403102472366967,-0.003341705789856388,-0.0010014032660004626,-0.006349230370486538
46.87,-0.4907646987521546,-0.003361561546885979,-0.0010014161740708426,-0.005707928293058822
46.904,-0.4873988644747579,-0.0033798308540256543,-0.00100143448672085,-0.00504808611396274
46.937,-0.484131413316645,-0.0033954467963687738,-0.0010014622708576608,-0.004409052543011306
46.97,-0.4808614092215919,-0.00340881664168506,-0.0010014967980530656,-0.003643980598402116
47.004,-0.47749166179555563,-0.0034199806368113597,-0.0010015426704406312,-0.002856715122244234
47.037,-0.4742203538082375,-0.003428289832048881,-0.0010015889535204756,-0.002094134914686363
47.07,-0.470952054286416,-0.0034340905637609146,-0.0010016502389203902,-0.0013158632872904965
47.104,-0.4675842486713165,-0.0034374401989553153,-0.0010017232184058658,-0.0005134203368382723
47.137,-0.46431484693202363,-0.0034381781312520857,-0.0010017783198028804,0.0002605031134654457
47.17,-0.46103854489430646,-0.0034364308340133556,-0.0010018229455163383,0.0010536948488800114
47.204,-0.45766232607134094,-0.0034320333373098187,-0.001001849259593495,0.00186566932353201
47.237,-0.45438486257583616,-0.003425328244613076,-0.0010018930001366236,0.0026549609143525794
47.27,-0.4511064027934553,-0.0034159701549355504,-0.0010019602807658998,0.003479499440789112
47.304,-0.4477297515074366,-0.0034034404758119734,-0.0010020876550626383,0.004319133748956934
47.337,-0.4444643328229287,-0.003388509151509873,-0.0010021096639132032,0.004964800300518537
47.37,-0.4412486407213609,-0.003372044714868013,-0.001001538217613257,0.0052243712222422665
47.404,-0.4379661581954991,-0.003353616091474167,-0.0010010448403404704,0.0055038372843273405
47.437,-0.4347348739280423,-0.003335385721123463,-0.0010015611395513026,0.005857520216600144
47.47,-0.43148541006098745,-0.0033148245998003622,-0.0010018158481572038,0.007006002843662182
47.504,-0.4281357434369348,-0.0032896304924011953,-0.0010017258413653161,0.008213429086504397
47.537,-0.4248849550862587,-0.003261317406730001,-0.00100168234148406,0.009386368620442878
47.57,-0.42164007781184637,-0.0032290342893524487,-0.0010016339947204814,0.01072187268709366
47.604,-0.41829672540830726,-0.0031912366724624673,-0.0010015808885515225,0.01209964376120199
47.637,-0.4150513355415112,-0.0031501399497286284,-0.0010015348042034175,0.013436392525008209
47.67,-0.411818662645685,-0.0031052524109390417,-0.001001499182972463,0.014495819417107935
47.704,-0.4084876321629671,-0.0030554233163564023,-0.0010014696077271165,0.01558516319906536
47.737,-0.4052541027584099,-0.00300358125481886,-0.0010014436763359814,0.01664117183097674
47.77,-0.4020226093343763,-0.002948465046626297,-0.0010014288183768372,0.017570700363665374
47.804,-0.39869265422588857,-0.0028883895077308854,-0.00100142812018654,0.018517930150746955
47.837,-0.3954602396761353,-0.002827580917485602,-0.0010013913444160416,0.01944199249863571
47.87,-0.3922376000485931,-0.0027636564165227423,-0.0010013881704144696,0.020410078197784946
47.904,-0.3889169012167546,-0.0026944672265914555,-0.001001394465899759,0.021410599393097487
47.937,-0.3856933540660387,-0.002624121541316777,-0.0010014074969168577,0.0223799619477029
47.97,-0.38246540303626037,-0.0025503397584475244,-0.001001428453384013,0.023500376411348566
48.004,-0.379139130111437,-0.002470541383740797,-0.0010014602031277325,0.024660751013010157
48.037,-0.37591016088073376,-0.0023893711177767744,-0.0010014980187408873,0.02578521177028235
48.07,-0.37268682481249193,-0.0023046264273473994,-0.0010015415100608181,0.026984756155180017
48.104,-0.3693653162323946,-0.0022132533269266764,-0.0010015929538507197,0.028219735847326927
48.137,-0.36614097813495,-0.00212063468766343,-0.0010016539557264371,0.029417389922769262
48.17,-0.3629070260711794,-0.002023850350676025,-0.0010017257067564712,0.03062814579709348
48.204,-0.35957483523932376,-0.0019200348294214106,-0.0010018242056441355,0.03187045842658644
48.237,-0.35634095041772723,-0.0018153626357194543,-0.0010018947891736185,0.03307422294842187
48.27,-0.353103915856921,-0.0017067525305866364,-0.0010019307104707047,0.03428129744741666
48.304,-0.34976762872180905,-0.0015908353951127898,-0.0010019380263053199,0.03554946614328677
48.337,-0.3465281114905975,-0.0014742578140432856,-0.0010019786882470537,0.03679430114178685
48.37,-0.3432884721381445,-0.0013535094267807313,-0.0010020925879207256,0.038027399186407546
48.404,-0.3399598474832627,-0.0012256442768403112,-0.0010019769210373904,0.03916682083662996
48.437,-0.33673410034601897,-0.0010979161804469393,-0.0010022800525417014,0.04050042601926538
48.47,-0.3335578502796393,-0.0009665905200275662,-0.0010015762552822126,0.042217258692281205
48.504,-0.33031531669720665,-0.0008266163603577814,-0.0010010039705589356,0.0443169377828322
48.537,-0.32714021895129725,-0.0006831438067063762,-0.001001109466815111,0.04604236038443623
48.57,-0.3239224175471329,-0.0005335318684814884,-0.001001733645092432,0.04693477090706566
48.604,-0.32060248136069375,-0.00037637805744750126,-0.0010016387942473337,0.047798432745090824
48.637,-0.3173801388022205,-0.00022110011383776588,-0.0010016088337045544,0.04863835632538635
48.67,-0.31417455057707855,-6.363042272370702e-05,-0.0010015469701997216,0.04970787473763981
48.704,-0.31087174482435004,0.00010222081631605773,-0.00100150644380596,0.05081069412724804
48.737,-0.30766581111922653,0.0002667022748359463,-0.0010014690454845203,0.05188016808857516
48.77,-0.3044628982914648,0.00043476550573450765,-0.0010014397985484563,0.053177531927223
48.804,-0.3011626612330495,0.0006123008324729119,-0.0010014156898527672,0.05451349777267535
48.837,-0.2979591843307436,0.0007888592515135688,-0.0010014006946667889,0.05580849962755983
48.87,-0.2947924666090795,0.0009677153894298558,-0.0010013960702118345,0.05726909947985028
48.904,-0.29152979138812607,0.0011568498201232741,-0.0010013839132373727,0.05877374061705089
48.937,-0.28836280426960986,0.0013451449865611018,-0.0010013848046700469,0.06023256465852648
48.97,-0.285201438920385,0.0015377567674697862,-0.001001393818167183,0.06171039416581945
49.004,-0.28194403422887415,0.0017411235481241535,-0.001001408595810386,0.06323167808942898
49.037,-0.27878214560366427,0.0019432830470889379,-0.0010014282036108768,0.06470676927528299
49.07,-0.275621244325716,0.0021500451829588943,-0.0010014555691026765,0.06617275510014366
49.104,-0.27236425617740223,0.002367955629621208,-0.0010014930039178964,0.06768175874119682
49.137,-0.26920276025550616,0.002584192454282801,-0.0010015357113332991,0.06914514987220774
49.17,-0.26603623716483177,0.0028054462583391765,-0.0010015845921435042,0.07062559640421257
49.204,-0.2627735277488331,0.003038342187847556,-0.0010016424017328489,0.07214877596714593
49.237,-0.25960680364805755,0.0032691582472543614,-0.0010016995150051965,0.07362318880206185
49.27,-0.25643694585025306,0.003504944698544627,-0.0010017678720611982,0.07512932405278984
49.304,-0.25317136008834207,0.003752842500256506,-0.0010018503059934687,0.07667460407813412
49.337,-0.2500017755431986,0.003998217904509592,-0.0010018885093107562,0.07817841751186085
49.37,-0.24682596321910427,0.004249138865489732,-0.0010019340626298452,0.0797481943198258
49.404,-0.2435543927616921,0.004513100561338149,-0.0010020662315731003,0.08137780170472583
49.437,-0.2403919191078655,0.004772930622404499,-0.0010018375707611799,0.08279205661584238
49.47,-0.23722172069166467,0.005037991811654871,-0.0010021000168944291,0.0843372213481579
49.504,-0.23395792655088146,0.005315966026202264,-0.0010020862559421903,0.08592621653791441
49.537,-0.23079635730369968,0.005590625676734022,-0.0010021625567891608,0.08754594610718329
49.57,-0.22767018843864564,0.0058679517783325145,-0.0010018441989830054,0.08959630084717249
49.604,-0.22449907324671642,0.006156535912077923,-0.0010009744366428243,0.09225752456273507
49.637,-0.22140806530363208,0.006445978836136977,-0.0010009402396030306,0.09468726314101358
49.67,-0.21826535617531231,0.006746844942474911,-0.0010014943415829689,0.09618556169729058
49.704,-0.21499606186536843,0.007063915678353582,-0.0010016406382662574,0.09737412627510159
49.737,-0.21182429662785843,0.007375313338396702,-0.0010015836347273752,0.09854137736973231
49.77,-0.20864578686221244,0.007690972981181801,-0.0010015504891308612,0.09959923643656635
49.804,-0.20537086028367224,0.008019751696121881,-0.0010014985730124396,0.10068842012567689
49.837,-0.2021921554365082,0.008342319119672615,-0.0010014607780803458,0.1017445582774087
49.87,-0.1990331135893861,0.008666956512013572,-0.001001431974607933,0.10332738086405628
49.904,-0.19577860688294968,0.0090067077140945,-0.0010014125179612608,0.10495972248905137
49.937,-0.19261982575608277,0.009341599921596428,-0.0010014005746445225,0.1065424462615166
49.97,-0.18950203184030745,0.009677496743403256,-0.0010013988437952079,0.10841122177665054
50.004,-0.18629041144202113,0.01002968185236831,-0.0010013913882387024,0.11033968342191436
