time,x,y,z,theta
21.003,-2.0000212728672073,1.1889615009180568e-05,-0.0010013929472406438,0.00017814401537931304
21.036,-2.000021276085815,1.1908553388182577e-05,-0.0010013929472692737,0.00017844265753304723
21.069,-2.0000212793044363,1.192749180899943e-05,-0.0010013929472978897,0.00017874130036548555
21.103,-2.0000212826206067,1.1947004165292388e-05,-0.0010013929473273904,0.00017904899369364845
21.136,-2.0000212858392565,1.1965942671261635e-05,-0.0010013929473560168,0.0001793476379079413
21.169,-2.0000212890579196,1.1984881219279932e-05,-0.0010013929473846363,0.00017964628280449336
21.203,-2.000021292374132,1.2004393706600987e-05,-0.001001392947414137,0.00017995397825890122
21.236,-2.0000212955928225,1.2023332339753899e-05,-0.0010013929474427703,0.0001802526245370463
21.269,-2.000021298811526,1.2042271014861095e-05,-0.0010013929474713933,0.00018055127149601224
21.303,-2.0000213021277804,1.2061783633062252e-05,-0.001001392947500887,0.0001808589690744191
21.336,-2.0000213053465115,1.208072239332797e-05,-0.001001392947529517,0.00018115761741533418
21.369,-2.000021308565256,1.2099661195531524e-05,-0.0010013929475581503,0.0001814562664368283
21.403,-2.000021311881552,1.211917394474857e-05,-0.001001392947587644,0.0001817639661412909
21.436,-2.0000213151003234,1.2138112832140993e-05,-0.001001392947616267,0.00018206261654519137
21.469,-2.00002131831911,1.2157051761572609e-05,-0.0010013929476449038,0.00018236126763120558
21.503,-2.0000213216354488,1.217656464161605e-05,-0.0010013929476743975,0.00018266896945885925
21.536,-2.0000213248542624,1.2195503656184181e-05,-0.0010013929477030309,0.0001829676219264908
21.569,-2.00002132807309,1.221444271266182e-05,-0.0010013929477316608,0.0001832662750742692
21.603,-2.000021331389471,1.2233955723854296e-05,-0.001001392947761165,0.0001835739790300059
21.636,-2.0000213346083244,1.2252894865446418e-05,-0.0010013929477897913,0.00018387263355907615
21.669,-2.0000213378271923,1.2271834049048735e-05,-0.0010013929478184212,0.00018417128876981878
21.703,-2.0000213411436154,1.2291347191218207e-05,-0.0010013929478479185,0.00018447899485102856
21.736,-2.00002134436251,1.2310286460026389e-05,-0.0010013929478765622,0.0001847776514444462
21.769,-2.0000213475814177,1.2329225770732232e-05,-0.001001392947905192,0.00018507630871783035
21.803,-2.0000213508978826,1.2348739043852489e-05,-0.0010013929479346997,0.0001853840169241221
21.836,-2.0000213541168192,1.2367678439724305e-05,-0.0010013929479633123,0.00018568267557957628
21.869,-2.0000213573357692,1.2386617877529222e-05,-0.0010013929479919421,0.0001859813349155304
21.903,-2.000021360652277,1.240613128174678e-05,-0.0010013929480214567,0.00018628904524912253
21.936,-2.0000213638712543,1.2425070804813746e-05,-0.0010013929480500866,0.00018658770596861432
21.969,-2.0000213670902447,1.2444010369750212e-05,-0.00100139294807872,0.00018688636736765036
22.003,-1.9995565735666134,1.2695906657486938e-05,-0.0010010715223265493,0.00019071993984429286
22.036,-1.9982377803857534,1.292357403838115e-05,-0.001001131971937956,0.00019418581834026695
22.069,-1.9960629351670802,1.3227961501527498e-05,-0.0010012242950647142,0.00019881463318071303
22.103,-1.9929336820437646,1.3559016103536422e-05,-0.0010013591084490972,0.0002038484403013081
22.136,-1.9890581676458505,1.37736983217571e-05,-0.0010015272084458043,0.0002071187044577042
22.169,-1.9844106063055549,1.3641941448168313e-05,-0.0010017354699493886,0.00020513962566355375
22.203,-1.9789158329734584,1.3079455796211608e-05,-0.0010019670233106757,0.00019663422596314848
22.236,-1.9730445206667395,1.2315302598557846e-05,-0.001002172388826817,0.00018507216756047926
22.269,-1.9668296313056683,1.0607756702628607e-05,-0.0010023415723401478,0.00015921360747510465
22.303,-1.960291340248213,7.39576648166463e-07,-0.0010008724598837317,9.569805074389206e-06
22.336,-1.9539349302688778,-8.081579807105389e-07,-0.0010005211209358177,-1.388761116425386e-05
22.369,-1.9474182256616408,8.743684349400841e-07,-0.001000522512448053,1.1623486075918718e-05
22.403,-1.9403501642990644,1.485020817945665e-06,-0.001000553221915397,2.0894011551094682e-05
22.436,-1.933119753447732,1.6784244754918623e-06,-0.0010015017561363533,2.3845545064433017e-05
22.469,-1.9258624139581715,1.8175808081543544e-06,-0.0010014428445267176,2.5969497843494766e-05
22.503,-1.9183839835912142,1.9362006197194562e-06,-0.0010014010716511458,2.7780331404066273e-05
22.536,-1.911124289311415,2.052694461001004e-06,-0.0010013921290314698,2.9555941162114566e-05
22.569,-1.9038633209532765,2.2237472412620976e-06,-0.0010014265651964484,2.9486844223708612e-05
22.603,-1.896380930680862,2.4015813005359715e-06,-0.0010015009319681162,2.5543696634329367e-05
22.636,-1.8891172233103242,2.5187395866384684e-06,-0.0010016065471700093,1.8399743442754222e-05
22.669,-1.8818522784372094,2.5580389209593966e-06,-0.0010017630816323633,9.03405851816038e-06
22.703,-1.8743675050097137,2.503181868477182e-06,-0.001001908894103589,2.6311134829038465e-06
22.736,-1.8671048890753792,2.452195929322915e-06,-0.0010020582824182174,1.751392089121212e-06
22.769,-1.8598511956368302,1.9256523876023203e-06,-0.001002254829765091,-6.225888429699779e-06
22.803,-1.8524120134475495,2.214635264398263e-06,-0.0010010567840235199,-1.8503690471447081e-06
22.837,-1.8451548922391035,2.28745419708948e-06,-0.001001646467367067,-7.303408788345931e-07
22.869,-1.8378990961048325,2.349667673930706e-06,-0.0010016503853302085,2.332506129190736e-07
22.903,-1.8304230021266357,2.315986656090344e-06,-0.0010015330015094755,-2.5593885700786696e-07
22.936,-1.82316577650308,2.236674531904413e-06,-0.0010014568278978939,-1.438292563468084e-06
22.969,-1.815907439012994,2.1430324252533466e-06,-0.0010014122583908436,-2.8402228210315236e-06
23.003,-1.808427913128131,2.033454026970743e-06,-0.0010013974243889279,-4.485288884192113e-06
23.036,-1.8011671075855284,1.908381345868223e-06,-0.0010014222869592602,-6.368075773575362e-06
23.069,-1.7939049828143583,1.7944071895388553e-06,-0.0010014865762596435,-9.52481649566497e-06
23.103,-1.786421367890371,1.6565973422416113e-06,-0.001001590950875337,-1.632594262905114e-05
23.136,-1.7791565499854431,1.4472826034328495e-06,-0.0010017410016340024,-2.541051319231248e-05
23.169,-1.7718917371883325,1.1482835036407659e-06,-0.0010018881028779625,-3.241417163778038e-05
23.203,-1.7644086263675394,8.7191713723764e-07,-0.0010020377217949267,-3.6591165367849645e-05
23.236,-1.7571522742332346,1.869996748749206e-07,-0.0010022522115108491,-4.6967705938000736e-05
23.269,-1.7499312418932016,-1.264528336023629e-07,-0.0010010233560052498,-5.171987757897977e-05
23.303,-1.7424570294378405,-3.090284572709515e-07,-0.001001662736736169,-5.446263836174051e-05
23.336,-1.7352012469133715,-6.618093035332066e-07,-0.0010016747028977618,-5.6480864944036e-05
23.369,-1.7279450906132585,-1.0616873258367203e-06,-0.0010015585480326467,-6.145748780555275e-05
23.403,-1.7204680275423425,-1.5853342172596595e-06,-0.0010014785255558142,-6.936438992154225e-05
23.436,-1.7132097584828692,-2.178653046671467e-06,-0.0010014290639345988,-7.832885408588582e-05
23.469,-1.7059503175904205,-2.8341152602537054e-06,-0.0010014117839262024,-8.823553925435319e-05
23.503,-1.6984696214134902,-3.5876933787633832e-06,-0.0010014335466807661,-9.962961812995604e-05
23.536,-1.6912076432184253,-4.402964596251504e-06,-0.0010014939185880034,-0.00011196062642902345
23.569,-1.6839443275548749,-5.313064274527889e-06,-0.001001588619549111,-0.00012572968739759622
23.603,-1.6764595416775778,-6.3594903635321024e-06,-0.001001732779667027,-0.00014156440840943483
23.636,-1.6691946155914903,-7.452248158994697e-06,-0.001001886131778519,-0.00015810300689605335
23.669,-1.6619312225454939,-8.646052827838368e-06,-0.0010020209669378624,-0.00017617481662725955
23.703,-1.654452796654771,-1.0493512750438604e-05,-0.0010022205378881523,-0.00020416353758333293
23.736,-1.6472283049618854,-1.2423784096757906e-05,-0.0010010900591935767,-0.0002334033961813426
23.769,-1.6399772402042756,-1.3860278575309162e-05,-0.0010018486105926976,-0.00025444434101624876
23.803,-1.632502205099293,-1.5817676429117723e-05,-0.0010016716213151963,-0.0002504394827887728
23.836,-1.6252461614054696,-1.761582343154531e-05,-0.0010015631828166026,-0.000252051517214682
23.869,-1.6179891389354775,-1.943583173292864e-05,-0.0010014897030439715,-0.00025880322198557304
23.903,-1.6105110332335724,-2.138088286092663e-05,-0.0010014383350484164,-0.0002714443351476008
23.936,-1.6032516609589635,-2.3381832315999896e-05,-0.0010014262607296008,-0.0002887216563508541
23.969,-1.5959910766312861,-2.5530718152967572e-05,-0.0010014477081370932,-0.00031035271925525194
24.003,-1.588509159043363,-2.7939031218673386e-05,-0.0010015071557823753,-0.00033613476154688244
24.036,-1.5812459784553072,-3.0493689707032444e-05,-0.001001600160698543,-0.0003631217837514323
24.069,-1.573981497159933,-3.328186964320255e-05,-0.0010017306089588132,-0.0003903126591238693
24.103,-1.5664963124026872,-3.6411430068571766e-05,-0.001001878909686664,-0.0004159707387448186
24.136,-1.5592326160923458,-3.960975765279819e-05,-0.0010019999936643105,-0.000436711457706697
24.169,-1.5519726452352882,-4.313180861912028e-05,-0.0010021761783280299,-0.00047248602785065
24.203,-1.5445232442510273,-4.7389437838750285e-05,-0.0010012299096345302,-0.0005369840225923478
24.236,-1.5372775477296545,-5.112635223356987e-05,-0.001001979332638566,-0.0005834368658762917
24.269,-1.53002261778758,-5.538965848077863e-05,-0.0010016731330303313,-0.0005741778393905247
24.303,-1.5225468880483917,-5.966784570198789e-05,-0.001001563638219627,-0.0005693927657999004
24.336,-1.5152900416539452,-6.378028393303148e-05,-0.0010014878241295655,-0.000569146658532549
24.369,-1.5080320787953492,-6.7907275839416e-05,-0.0010014321161588707,-0.0005734688958145118
24.403,-1.5005529246324834,-7.220896474639388e-05,-0.0010014140663815764,-0.000583095561447405
24.436,-1.493292494854625,-7.647731363620896e-05,-0.0010014303545998193,-0.0005972833306775899
24.469,-1.4860307989211299,-8.087823910472862e-05,-0.0010014852990522967,-0.0006154022053351504
24.503,-1.4785476835363776,-8.558773676280561e-05,-0.0010015712034456697,-0.0006366877138797123
24.536,-1.4712833118137105,-9.035250141490822e-05,-0.0010016949491600882,-0.0006587598063974841
24.569,-1.464018171109936,-9.530863418755687e-05,-0.0010018478189271762,-0.0006810129970637841
24.603,-1.4565340404819813,-0.00010057825980831924,-0.0010019756510559474,-0.0007014574481315329
24.636,-1.449273139222392,-0.00010595298083819257,-0.0010021400064725607,-0.0007331927433607908
24.669,-1.4420362183723827,-0.00011227450843137521,-0.0010016427161883903,-0.0008287201872612086
24.703,-1.434577067904443,-0.00011829234969251865,-0.0010019938319989936,-0.0009087729893932103
24.736,-1.4273217530658309,-0.0001249370244758309,-0.00100169658737043,-0.0008964255595083821
24.769,-1.4200660964931688,-0.00013142992257060294,-0.0010015762163382604,-0.0008889749197814491
24.803,-1.4125895441357315,-0.00013806264884261597,-0.0010014881431093803,-0.000884750834352122
24.836,-1.4053317557380745,-0.00014448221180812746,-0.001001431060872842,-0.0008844199814302533
24.869,-1.3980727856128377,-0.00015091375452567439,-0.0010014058642931895,-0.0008880285370921931
24.903,-1.3905925474923375,-0.00015758628724581893,-0.0010014162312819257,-0.0008963620496765446
24.936,-1.3833310180459797,-0.00016414596198583716,-0.0010014658474532465,-0.0009086515338038124
24.969,-1.3760681721308097,-0.00017082519903608223,-0.001001545921817261,-0.0009241168911657506
25.003,-1.368583836260799,-0.00017786522758844563,-0.0010016661913786126,-0.0009428049079215822
25.036,-1.3613186613501291,-0.00018486380398118624,-0.0010018232569120739,-0.0009627299361383535
25.069,-1.3540543795804292,-0.00019201168799156076,-0.0010019500279831173,-0.0009816342449858926
25.103,-1.3465726851947566,-0.00019960907093982105,-0.0010021094217793937,-0.0010089518137993863
25.136,-1.3393297641978346,-0.00020803081240707632,-0.0010019194789164174,-0.0011253814865010935
25.169,-1.3320980502700976,-0.00021592399845334236,-0.0010016529595255307,-0.0012433450285172635
25.203,-1.3246210921516248,-0.00022540430964249056,-0.0010017406751211544,-0.001233745954855312
25.236,-1.317365602787726,-0.00023433966266139176,-0.0010015885653818397,-0.001225301253596665
25.269,-1.3101091191008303,-0.0002432203970463145,-0.001001495595601129,-0.0012194078886017372
25.303,-1.3031597598551972,-0.0002521890538388427,-0.0010022675314295681,-0.0013141798867169164
25.336,-1.2974433542539168,-0.00026022230279147863,-0.0010021278915327593,-0.0014342616957676564
25.369,-1.2927828590286083,-0.00026725374439873125,-0.0010020169452708873,-0.0015397304315954063
25.403,-1.2891007091130577,-0.0002731254737368697,-0.0010019252454010578,-0.0016280795673907335
25.436,-1.2866143122508633,-0.0002772450238302648,-0.00100187650860813,-0.0016902171794659806
25.469,-1.2851957492305666,-0.000279639587898177,-0.001001856527618153,-0.0017264512599402865
25.503,-1.2848482607696323,-0.00028018956707300744,-0.0010018470315794926,-0.0017348234978881761
25.536,-1.2855753360943383,-0.0002789183622664065,-0.0010019123941217116,-0.0017150933860772507
25.569,-1.287343955297074,-0.0002759613707143827,-0.0010019943937816626,-0.001669902352667077
25.603,-1.2902551862991039,-0.00027132314071711566,-0.0010021033569850776,-0.0015989478184299571
25.636,-1.2941232264161664,-0.0002655519924018731,-0.0010022347012245136,-0.0015103537051060223
25.669,-1.2989749277943285,-0.0002589269914997618,-0.001002366168862727,-0.0014084044170537
25.703,-1.3049074382776906,-0.00025177395937700254,-0.0010024770886925966,-0.0012986306603049163
25.736,-1.3114141110335653,-0.00024437588141992947,-0.0010025316414126358,-0.001186531359293556
25.769,-1.318456240636509,-0.0002367094100869189,-0.0010025276385120171,-0.0010703637456217665
25.803,-1.3257323594945642,-0.00022613207274200343,-0.001000473891908573,-0.0009102318695503167
25.836,-1.3325911560928285,-0.0001987806642982622,-0.0010020079429876629,-0.0004958224007797595
25.869,-1.339327885869659,-0.000176706705650742,-0.0010022866107885949,-0.0001612720950961778
25.903,-1.3460379073291613,-0.00018983288321558768,-0.001002248918054973,-0.00036015322032898893
25.936,-1.3522320874463265,-0.0002011493758363416,-0.0010022151225789235,-0.0005316023187624303
25.969,-1.3580581485338923,-0.00021193567810794695,-0.0010022042280699965,-0.0006950125408500985
26.003,-1.3636585492529318,-0.00022439894988128076,-0.0010022216940560845,-0.0008838254561483913
26.036,-1.3687237983984617,-0.00024067311775702207,-0.0010022546618151523,-0.0011303705913112843
26.069,-1.3734811706703172,-0.0002686768994409508,-0.001002310393126385,-0.0015546061126417664
26.103,-1.378162031681674,-0.0003307472891304174,-0.0010023491156029678,-0.0024948653631871698
26.136,-1.3825825521599573,-0.000388706320765791,-0.0010004514428525596,-0.0033727452867631275
26.169,-1.3867885892986707,-0.0003749000983038494,-0.0010004530569859456,-0.0032417088397652142
26.203,-1.390719492125645,-0.0003438619866768298,-0.001000470838333007,-0.002771585620336402
26.236,-1.3939601328678235,-0.0003248704860073091,-0.001000505453838417,-0.0024839046818416347
26.269,-1.3964679304184822,-0.00031262193536965257,-0.0010005818450702746,-0.002298351495080764
26.303,-1.3981397415136176,-0.00030528931703793923,-0.0010007001728449573,-0.0021872586364878187
26.336,-1.3987698390814989,-0.0003023955121051053,-0.0010008506029348767,-0.0021434036865813012
26.369,-1.3984395165338814,-0.0003030311550367052,-0.0010011154037477023,-0.002153014515999551
26.403,-1.3972016291928182,-0.0003066986047472193,-0.0010013297083739693,-0.0022085500812862487
26.436,-1.395152897088115,-0.00031312824568201453,-0.001001553311814004,-0.002305926393101501
26.469,-1.3923375466094428,-0.0003223854000621298,-0.0010017821232027047,-0.0024461306204141913
26.503,-1.3887542108857691,-0.0003350464271681604,-0.0010020107329419443,-0.0026378896658911556
26.536,-1.384772644367941,-0.0003509589752312392,-0.0010022124202196392,-0.002878892685964822
26.569,-1.3804880909055428,-0.00037342648279041653,-0.001002372064722725,-0.0032191676073795696
26.603,-1.3759816915893306,-0.0004186220342866766,-0.0010006214802891211,-0.003903824851553269
26.636,-1.3715804238231069,-0.00043869750792986304,-0.0010005217350311305,-0.004227531528102808
26.669,-1.3669824328745697,-0.0004536081268145734,-0.0010005288453924996,-0.004453306020409607
26.703,-1.361856413586316,-0.00047462752352848796,-0.0010005681658224568,-0.004771572371385805
26.736,-1.3563450844326796,-0.0005007058714365159,-0.0010006460720364922,-0.005166423342183068
26.769,-1.3501735637976444,-0.0005335105434815185,-0.0010007614065078649,-0.005663089463465751
26.803,-1.3430265314317509,-0.0005760717467052687,-0.0010012952494239773,-0.006228059404945857
26.836,-1.3357665317924836,-0.0006213565556770312,-0.001001409195296097,-0.006231713283484222
26.869,-1.3285053220402787,-0.0006666537457436512,-0.001001449402762821,-0.0062385012234835386
26.903,-1.3210226879214968,-0.0007134089275764447,-0.0010015287026540337,-0.006248883835942464
26.936,-1.313758751973464,-0.0007589026999840093,-0.001001638478421895,-0.006262232390541998
26.969,-1.3064937266830978,-0.0008045284562701626,-0.0010017968127570102,-0.006278716199959736
27.003,-1.2993004084243338,-0.0008491996309936883,-0.0010008093887914037,-0.006616210523707665
27.036,-1.2927603234813871,-0.0008912093228470425,-0.0010007135036822802,-0.00725211216797365
27.069,-1.2865227364413991,-0.0009298053696035479,-0.001000634166898589,-0.007837050123754283
27.103,-1.2803029824660566,-0.0009560167884382945,-0.001000574846537948,-0.008237799163756651
27.136,-1.2743901697946685,-0.0009618378485628185,-0.001000555503177552,-0.008325896432593172
27.169,-1.2685555728395261,-0.000964472251479138,-0.0010029195909937276,-0.00836575258869178
27.203,-1.2626086064208648,-0.0009719764627860114,-0.0010006035522977033,-0.00847933434973017
27.236,-1.2569137288800554,-0.000977112309085981,-0.001000571394337034,-0.008557062554329297
27.269,-1.2513363485200417,-0.0009678639733573185,-0.0010006374143798936,-0.008417092654731098
27.303,-1.2457898550954216,-0.0009769816397080452,-0.0010006984981795544,-0.008556349572974253
27.336,-1.2407047898804782,-0.0009981375326102795,-0.0010007933917307484,-0.008876702946362221
27.369,-1.2360434480446192,-0.0010248242077865422,-0.0010009171171808662,-0.009280529498689016
27.403,-1.231843361055332,-0.0010537987935930293,-0.0010010955913238619,-0.009718951335837974
27.436,-1.2285148723039114,-0.001080412745834749,-0.001001298679207046,-0.010121628616840347
27.469,-1.226064006373529,-0.0011020507705244453,-0.001001517943175368,-0.010448998807204665
27.503,-1.2245687731210744,-0.0011163066927027607,-0.0010017521395059951,-0.010664668452880336
27.536,-1.224183052098847,-0.001120495401374927,-0.001001956016554728,-0.01072802507006905
27.569,-1.2248420075299005,-0.0011146955344596143,-0.0010021649390080586,-0.010640261424295798
27.603,-1.2265601439501457,-0.0010988836359326598,-0.0010023387731293645,-0.010401016684539757
27.636,-1.2291366338630265,-0.0010755797226547506,-0.0010024595459108727,-0.010048406109243778
27.669,-1.2324546938298646,-0.0010469644359029566,-0.0010025230110651331,-0.009615408746953701
27.703,-1.236438429023518,-0.0010155711146249212,-0.001002523336384023,-0.009140345124937312
27.736,-1.2406143045020637,-0.0009899235801974237,-0.0010024402524307571,-0.008752200419708131
27.769,-1.244852455285684,-0.0009795095005321415,-0.0010005802861638678,-0.008595081691341003
27.803,-1.2492764237088134,-0.0009365369221110353,-0.0010007211803021478,-0.007949561878441938
27.836,-1.2538318797665096,-0.0008973651082759788,-0.0010008776530381312,-0.007356650174663807
27.869,-1.2588475795660545,-0.0008598063757182896,-0.001001061125121775,-0.006788106579220072
