time,x,y,z,theta
2980.797,-0.7003720955872282,0.0018916026846689817,-0.0010013970892151017,0.029911103936992128
2980.83,-0.7003721002883105,0.0018916257990537568,-0.0010013970892839875,0.029911470714703587
2980.863,-0.7003721049894128,0.0018916489134901426,-0.0010013970893528769,0.029911837493263784
2980.897,-0.700372109832994,0.001891672728417801,-0.0010013970894238514,0.029912215387210835
2980.93,-0.7003721145341372,0.0018916958429587498,-0.0010013970894927372,0.029912582167490834
2980.963,-0.7003721192353003,0.0018917189575511967,-0.001001397089561637,0.02991294894861788
2980.997,-0.700372124078944,0.0018917427726397257,-0.001001397089632601,0.02991332684521081
2981.03,-0.7003721287801479,0.0018917658873367701,-0.0010013970897015077,0.029913693628058177
2981.063,-0.7003721334813717,0.0018917890020853007,-0.0010013970897703936,0.029914060411752406
2981.097,-0.700372138325078,0.001891812817334619,-0.001001397089841368,0.02991443831098995
2981.13,-0.7003721430263427,0.0018918359321877843,-0.0010013970899102644,0.0299148050964051
2981.163,-0.7003721477276273,0.0018918590470924108,-0.0010013970899791606,0.029915171882666694
2981.197,-0.7003721525713963,0.0018918828625025916,-0.0010013970900501386,0.02991554978454995
2981.23,-0.7003721572727215,0.0018919059775118457,-0.0010013970901190487,0.029915916572532352
2981.263,-0.700372161974067,0.0018919290925725582,-0.0010013970901879346,0.029916283361361155
2981.297,-0.7003721668178985,0.0018919529081435934,-0.0010013970902589195,0.029916661265890043
2981.33,-0.7003721715192845,0.001891976023308893,-0.0010013970903278088,0.02991702805643906
2981.363,-0.7003721762206907,0.0018919991385257366,-0.001001397090396712,0.029917394847835805
2981.397,-0.7003721810645848,0.0018920229542576058,-0.0010013970904677073,0.02991777275500998
2981.43,-0.7003721857660317,0.0018920460695790512,-0.0010013970905365897,0.029918139548127148
2981.463,-0.7003721904674988,0.0018920691849519844,-0.0010013970906054999,0.029918506342091176
2981.497,-0.7003721953114553,0.0018920930008446564,-0.0010013970906764952,0.02991888425191019
2981.53,-0.700372200012963,0.0018921161163221966,-0.0010013970907453845,0.029919251047594717
2981.563,-0.7003722047144907,0.0018921392318512309,-0.0010013970908142877,0.029919617844126233
2981.597,-0.70037220955851,0.0018921630479047824,-0.0010013970908852865,0.02991999575659127
2981.63,-0.7003722142600783,0.0018921861635383967,-0.0010013970909541758,0.02992036255484284
2981.663,-0.7003722189616669,0.0018922092792235455,-0.0010013970910230825,0.02992072935394202
2981.697,-0.7001050713269182,0.0019005166642973208,-0.0010011387259815548,0.02624996828909664
2981.73,-0.6995200824750132,0.0019156727774600408,-0.001001390433021724,0.019026054661005275
2981.763,-0.6989317358496919,0.001926601811060917,-0.0010013995439321563,0.011766283365273546
2981.797,-0.6983740844134532,0.0019330277948490615,-0.0010014079471681384,0.005385176535880261
2981.83,-0.6978348239267682,0.001935858373823468,-0.0010014054848651761,-0.000784924303345323
2981.863,-0.6972954391785271,0.0019353617037228842,-0.001001409510734956,-0.006956101088566672
2981.897,-0.6968932854206215,0.0019326418338598689,-0.001001389626739943,-0.009283448256693437
2981.93,-0.6965447018323093,0.001929555344938268,-0.001001413015059193,-0.01093885489123748
2981.963,-0.696196052928118,0.0019258909148681458,-0.0010014152447791087,-0.01259467195768028
2981.997,-0.6959824003249626,0.0019230862039064471,-0.0010014149422685331,-0.01148634069907791
2982.03,-0.6958020013016624,0.001920804339183415,-0.0010014206116840535,-0.010083585664077395
2982.063,-0.6956215730258427,0.001918776166068805,-0.0010014214160164736,-0.008680760243167029
2982.097,-0.6955239737426478,0.0019176796319929003,-0.001001430026353025,-0.007358374327358153
2982.13,-0.695431681583959,0.0019167559264339795,-0.0010014223089919796,-0.006079874898339948
2982.163,-0.6953393759381479,0.0019159504958918968,-0.0010014229741260247,-0.004801259830356101
2982.197,-0.6952249769251893,0.0019153597321259147,-0.001001422511886483,-0.004443764165886533
2982.23,-0.6951132818530639,0.0019148189643788704,-0.0010014251589065756,-0.004109465729039829
2982.263,-0.6950015676199436,0.0019143154169659815,-0.001001425860244258,-0.003775183804692361
2982.297,-0.6946171065859478,0.0019128242279844653,-0.0010014345923887308,-0.003976307028990094
2982.33,-0.6941927637252053,0.0019111637720937975,-0.0010014257283989178,-0.004303450494893111
2982.363,-0.6937683463275209,0.001909366003433676,-0.0010014293383776192,-0.004630846296969594
2982.397,-0.6933763695711255,0.0019076243300639698,-0.0010014429973786258,-0.004253470641879105
2982.43,-0.6926731747202224,0.0019047095731324665,-0.0010014305078567855,-0.0042051802509451815
2982.463,-0.6918694434663164,0.0019013640037856372,-0.0010014592050043743,-0.0041548483086400875
2982.497,-0.6907746701414801,0.001896753398067108,-0.001001468948701182,-0.004015390618442051
2982.53,-0.6896612363047242,0.0018923619784750685,-0.00100147362737801,-0.00377745379190049
2982.563,-0.6885476094696195,0.001888230167930028,-0.001001483182810032,-0.0035397855091803057
2982.597,-0.6872235590043113,0.0018833669028876067,-0.0010014932616005633,-0.0039552652080062185
2982.63,-0.6859191990833712,0.0018780073330475525,-0.0010015130706288872,-0.004472134883407163
2982.663,-0.6846145998098406,0.0018719708605020083,-0.0010015307620869218,-0.004989651537019539
2982.697,-0.6831937260263794,0.001864982102693848,-0.0010015617931534437,-0.0051203566978917595
2982.73,-0.6818117385935671,0.0018579451405434893,-0.0010015898153717916,-0.005226880028436365
2982.763,-0.6804295032607253,0.001850733438757516,-0.0010016159065245646,-0.00533604464237454
2982.797,-0.6789286524556608,0.0018426239271450763,-0.0010016139492325903,-0.0049120654222890095
2982.83,-0.6774673561169561,0.0018355936088291106,-0.0010016340791770793,-0.004447920801917419
2982.863,-0.6760056554858765,0.0018292066717993025,-0.0010016543738239903,-0.0039867632834980765
2982.897,-0.6744140833849359,0.001822906910843346,-0.0010017075145668346,-0.003905268854840705
2982.93,-0.6728652804139021,0.0018168490669630193,-0.001001743396678488,-0.003853554784616335
2982.963,-0.6713163356954863,0.0018108665346810145,-0.0010017791529164898,-0.0038019048240805543
2982.997,-0.6696995047414933,0.0018045485465038322,-0.0010018171775791306,-0.00390959562233433
2983.03,-0.6681301578320209,0.0017983303160062569,-0.0010018455578980172,-0.004016460634066745
2983.063,-0.6665610192723934,0.0017919448147117195,-0.0010018732123121092,-0.004122137069347683
2983.097,-0.6649274168104436,0.001785080049185608,-0.001001901860357153,-0.00433141776821948
2983.13,-0.6633420172380978,0.0017780759145237756,-0.0010019305131589822,-0.004533875938550165
2983.163,-0.6617569739941289,0.0017707526187074416,-0.0010019590641369563,-0.004734753021530502
2983.197,-0.6601034241199364,0.0017627634442291082,-0.001001992556310529,-0.004967533754372902
2983.23,-0.6584987080072975,0.001754631672135911,-0.0010020214382575159,-0.005192843947396805
2983.263,-0.6568946008943746,0.001746106899680619,-0.0010020574645855373,-0.005414451735534441
2983.297,-0.6552290738012214,0.0017371503845721628,-0.0010021082791664693,-0.0054294459798057155
2983.33,-0.653613571780575,0.0017283407070606245,-0.001002090415915785,-0.005414968760818868
2983.363,-0.6520002085554405,0.0017197045952769131,-0.0010021881737679525,-0.00540464229346527
2983.397,-0.6503547672719374,0.0017118472915462314,-0.0010019221343142877,-0.00535866148910429
2983.43,-0.6487991723383095,0.0017094427094560547,-0.001001921585299978,-0.005389768032197773
2983.463,-0.6472890180920883,0.001699909745272779,-0.0010014300609243916,-0.005534094309568318
2983.498,-0.6457571215519143,0.0016921811861051567,-0.0010007767264395423,-0.00565107803295469
2983.53,-0.6442452824438066,0.0016842911143179658,-0.0010007000651009422,-0.005770524325410333
2983.563,-0.6426708944864903,0.0016754208802078209,-0.0010013115649629423,-0.005904778961414948
2983.597,-0.6409959086681779,0.0016655438125266686,-0.0010013330138316755,-0.005868675635258726
2983.63,-0.639344610798558,0.001656031615839729,-0.0010017657990978868,-0.005453105560261105
2983.663,-0.6376906915745828,0.00164728233296873,-0.0010017325761130652,-0.004985324633479479
2983.697,-0.6359698403479367,0.001639077281662788,-0.0010016745796827403,-0.004359867171788171
2983.73,-0.6342989363551524,0.0016321481014981666,-0.0010017077031644304,-0.0037451139142258166
2983.763,-0.6326284053056999,0.0016262512277608035,-0.0010016879221901587,-0.003129558587044317
2983.797,-0.6309142189494912,0.0016210773394462893,-0.001001664531246206,-0.002828225204588389
2983.83,-0.6292504877308446,0.0016165434279510364,-0.0010016431011124032,-0.0025362325453421905
2983.863,-0.6275866038181322,0.0016124954563758902,-0.001001611458342263,-0.0022443047139821958
2983.897,-0.6258761295360502,0.0016087885627200493,-0.0010015938208071153,-0.0022465765604272815
2983.93,-0.6242157583640726,0.0016050745615640882,-0.001001568806112213,-0.0022496195996623445
2983.963,-0.6225551522635707,0.0016013548976037118,-0.0010015473470040004,-0.0022533900818581688
2983.997,-0.6208461267731011,0.001597584479601691,-0.0010015341869437332,-0.002289326684837228
2984.03,-0.6191871412254843,0.0015937719362891917,-0.0010015149772408423,-0.002324364813808197
2984.063,-0.6175278975407055,0.0015899011563793983,-0.0010014978631033497,-0.0023603257138915257
2984.097,-0.6158252922911662,0.0015854510428017765,-0.0010014405218688738,-0.002482709215539048
2984.13,-0.614172528576855,0.0015812384970521412,-0.0010014252950457728,-0.002605230796166944
2984.163,-0.6125193672019259,0.0015768367957085764,-0.0010014215809229197,-0.0027284798674087453
2984.197,-0.6108211664267639,0.0015721328070518947,-0.0010014132800985273,-0.0028225648866563664
2984.23,-0.6091726080256095,0.0015674276715203926,-0.0010014071263336373,-0.002914307629130709
2984.263,-0.6075237540927503,0.0015625770917268669,-0.0010014015979949997,-0.0030063534628173385
2984.297,-0.6058231136663642,0.001557644443054955,-0.0010014059118724494,-0.0029337078186767833
2984.33,-0.6041722392861715,0.001552858879658555,-0.0010014026401267244,-0.0028621580601445157
2984.363,-0.6025210837878073,0.0015481902523263422,-0.0010014023906089395,-0.0027914158910194013
2984.397,-0.6008226989811328,0.0015435313573790178,-0.0010014005195487126,-0.0026484124539967254
2984.43,-0.5991740020690293,0.0015392574739558527,-0.0010013997394395964,-0.0025102110821193895
2984.463,-0.5975250185201085,0.0015352105473999094,-0.0010014025362888729,-0.0023728024137657693
2984.497,-0.5958304356424784,0.0015312872641623373,-0.001001412842733286,-0.0023231020941666194
2984.53,-0.5941854263941799,0.0015275132042410434,-0.0010014198344625545,-0.002275865670271706
2984.563,-0.5925401250431092,0.0015238153541393881,-0.0010014291782118497,-0.002229617743126159
2984.597,-0.5908415072117307,0.001520059579722157,-0.0010014380203216197,-0.0021593504385286387
2984.63,-0.5891925270905449,0.0015165537568442066,-0.0010014519590674127,-0.002092226205287505
2984.663,-0.587543252386484,0.0015131571232346447,-0.0010014697130502626,-0.0020259787921196957
2984.697,-0.5858424581346489,0.0015097508431161416,-0.001001480042258425,-0.0019404004212690697
2984.73,-0.5841913208569176,0.0015065837373844228,-0.0010014959202521538,-0.0018589909179946944
2984.763,-0.582539860058194,0.0015035391970795006,-0.0010015152075212828,-0.0017784364151459992
2984.797,-0.5808374837704616,0.001500443074342931,-0.0010015424889139833,-0.0018249197273138605
2984.83,-0.5791848516377172,0.0014974043744954138,-0.0010015666837693595,-0.0018709368520142063
2984.863,-0.5775319158822755,0.0014942967910750702,-0.0010015923350921128,-0.0019179964169586592
2984.897,-0.5758287928121321,0.0014908939787865003,-0.0010016113838386166,-0.0019699486755855805
2984.93,-0.5741754636323638,0.001487596637427236,-0.0010016420610006252,-0.002020996833181455
2984.963,-0.5725218507725004,0.0014842127023487733,-0.001001676153977435,-0.0020725256456560082
2984.997,-0.5708070087140317,0.0014807559266824808,-0.0010016922177452266,-0.0018887138558482534
2985.03,-0.5691422074035299,0.0014776053483676263,-0.0010017306750864582,-0.0017076938250585058
2985.063,-0.5674772366201711,0.0014747528369992353,-0.0010017685306766694,-0.0015268682350870165
2985.096,-0.565770469866384,0.0014722109009247893,-0.0010018307016771665,-0.0014850552662417
2985.13,-0.5641141888063524,0.0014697366820753746,-0.0010018591973733615,-0.0014437000048861388
2985.163,-0.5624581450073012,0.0014673312811231609,-0.0010018868345687722,-0.0014016963083736031
2985.197,-0.5607515660766607,0.0014649995166112928,-0.0010019255566979038,-0.0013922158105509172
2985.23,-0.5590955203248152,0.0014626731759645301,-0.0010019523128257206,-0.0013817009384365854
2985.263,-0.5574398664828647,0.0014603655763547917,-0.001001979418045515,-0.0013702530895596562
2985.297,-0.555739777425457,0.0014579192203049637,-0.0010019663320462655,-0.001134681880334656
2985.33,-0.5540902545553031,0.0014560669419872352,-0.00100200804617007,-0.0009053085103998243
2985.363,-0.5524412406316872,0.0014545839890859552,-0.0010020470028621609,-0.0006766685737797684
2985.397,-0.5507583939631074,0.0014535465645719096,-0.0010021879632438509,-0.0006632835656150142
2985.43,-0.5491232485540302,0.001452387143003581,-0.0010021772297207944,-0.0006808451603415974
2985.463,-0.5475000323931647,0.0014509251155858808,-0.0010022894058997443,-0.000702974677862007
2985.497,-0.5458540806590176,0.001448363082680745,-0.0010023813561391114,-0.0007417833953549009
2985.53,-0.5443130665908601,0.0014450883774289598,-0.0010014372144085543,-0.0007914024468507082
2985.563,-0.5428086750403268,0.001445416071950252,-0.0010007823727513007,-0.0007864427060590265
2985.597,-0.5412398768167652,0.0014450682371420233,-0.0010006841387216678,-0.000791696496889333
2985.63,-0.5396572777783414,0.0014441671714491577,-0.001001089779933951,-0.0008053327860900421
2985.663,-0.5380181716559074,0.0014427423233548862,-0.0010017798396157428,-0.0007349039774166891
2985.697,-0.536307594601603,0.0014416241592452076,-0.0010017673635814954,-0.0004685016836220945
2985.73,-0.5346395631031148,0.0014410502662401427,-0.0010017337158011834,-0.00010643750401222595
2985.763,-0.5329717269908119,0.0014410787297693727,-0.0010017209032185045,0.000259588694815433
2985.797,-0.5312498565480346,0.0014416423718765924,-0.0010017000388236677,0.00042398792651012943
2985.83,-0.5295787500152579,0.0014424357848859043,-0.001001692826507205,0.000583496303162572
2985.863,-0.5279078408928903,0.001443498015192347,-0.001001673378571398,0.0007438549368938099
2985.897,-0.5261969799048049,0.0014450035288641483,-0.0010016590441394163,0.0007839669926354072
2985.93,-0.5245363438224759,0.0014463434335349893,-0.00100163538163019,0.0008224823112660641
2985.963,-0.5228755268217175,0.0014477492113522184,-0.0010016082004321684,0.0008599537951474704
2985.997,-0.5211676883832476,0.0014492501164807725,-0.0010015791442598392,0.0008827214266985624
2986.03,-0.5195098817086157,0.0014507154832239706,-0.0010015552710205683,0.0009049522545746799
2986.063,-0.5178518576261653,0.0014522149692416365,-0.0010015326313721866,0.0009276990243993167
2986.097,-0.5161470537642274,0.0014537267288184104,-0.0010015003241771007,0.0010754422786690178
2986.13,-0.5144921555584523,0.0014556002556346437,-0.0010014860931782943,0.0012178119331072421
2986.163,-0.5128369900029734,0.0014577120528683524,-0.0010014736714604074,0.001359282967608178
2986.197,-0.5111376013715325,0.0014598983470145333,-0.0010014406668359746,0.0013830895286759957
2986.23,-0.5094879260215769,0.0014621950412980723,-0.0010014281953961632,0.001404149285908319
2986.263,-0.5078379768572157,0.0014645272388820521,-0.0010014169676925352,0.0014244927639158616
2986.297,-0.506136086016416,0.0014669694724686398,-0.0010014071596355714,0.001446326992728259
2986.33,-0.5044839628722296,0.001469376487754129,-0.001001400315244566,0.0014667613289138818
2986.363,-0.5028315640929738,0.0014718179269028004,-0.0010013958872302706,0.0014864612932810708
2986.397,-0.5011332348848402,0.0014743461137175565,-0.001001393995614875,0.001476901393756844
2986.43,-0.49948459731877504,0.0014767817370400457,-0.0010013881899959345,0.0014668473834293253
2986.463,-0.49783567668233464,0.0014792017386136957,-0.001001386867543145,0.0014559999623872364
2986.497,-0.4961312034426935,0.0014816049690128885,-0.0010013878623778456,0.0012927960557067237
2986.53,-0.4944765258739256,0.0014836610372574975,-0.0010013914499307358,0.0011329749003977363
2986.563,-0.4928215576769945,0.001485452376393743,-0.0010013962040123468,0.0009722892383467332
2986.597,-0.4911208298839146,0.0014875162467772947,-0.0010014367394357918,0.001023471551941332
2986.63,-0.4894698863681251,0.0014892765152900644,-0.0010014466111964715,0.0010742868194800605
2986.663,-0.48781865704564414,0.0014911197654917411,-0.0010014584158662306,0.001123891943091071
2986.697,-0.4861142202005999,0.001492999175556031,-0.00100146265577895,0.0011524032452097236
2986.73,-0.4844595993449079,0.0014949106454543518,-0.0010014736660099097,0.001181398743288146
2986.763,-0.48280466454906057,0.0014968678852980788,-0.00100148671768353,0.0012110862310476364
2986.797,-0.4811099769821112,0.001499054240841681,-0.0010015155087210563,0.0012835664601811112
2986.83,-0.4794649040743868,0.0015012192107932971,-0.0010015371146259965,0.0013538573629436812
2986.863,-0.4778195346661484,0.0015034979182012432,-0.0010015611544291446,0.001423314722981039
2986.897,-0.4761169148062245,0.0015057806336328725,-0.0010015551266594654,0.0015716434260550952
2986.93,-0.4744639635371771,0.0015084058689016592,-0.0010015766778150997,0.0017141112632517196
2986.963,-0.4728106158231689,0.0015112521488419854,-0.0010016011593995677,0.0018568621926081962
2986.997,-0.47110506558891496,0.0015142544302755659,-0.0010016374974939658,0.001861066401647855
2987.03,-0.46944939753538634,0.0015173243047028975,-0.0010016711068914844,0.001862490292739507
2987.063,-0.46779345903640146,0.001520394205087502,-0.001001708292433852,0.0018634762208704382
2987.097,-0.46608690871329955,0.0015235629102147586,-0.0010017475930506371,0.001885941074214375
2987.13,-0.4644304035414796,0.001526674040983969,-0.0010017876435984598,0.0019077436035021993
2987.163,-0.46277394966675567,0.001529817354519764,-0.001001820040590875,0.0019300448119550161
2987.197,-0.46106741301795473,0.001533293114114201,-0.0010018455845069787,0.002048176644200198
2987.23,-0.4594112255271146,0.001536678393024466,-0.0010018739155629834,0.002168504766825319
2987.263,-0.45775529975813783,0.0015402641304650998,-0.0010019022664532092,0.0022893945541345062
2987.297,-0.4560497128375117,0.0015441421522862635,-0.0010019273420521849,0.002428853456943959
2987.33,-0.45439466100095915,0.001548165668671797,-0.001001957092254313,0.0025646232677999795
2987.363,-0.4527400319188254,0.0015524162145981067,-0.0010019884167374246,0.0027007947803356887
2987.397,-0.45104405492595473,0.00155679658363027,-0.0010020140353502911,0.0027695967487058777
2987.43,-0.4493988458506548,0.0015612570684857532,-0.0010020640981183576,0.0028256357336616067
2987.463,-0.4477544060296403,0.001565833648070327,-0.001002115775943429,0.0028856741708738194
2987.497,-0.44607438927931264,0.0015707710429676356,-0.0010022884757859944,0.0029601653185044935
2987.53,-0.44444528240940967,0.0015755027504143558,-0.001002314032520029,0.003031901941916582
2987.563,-0.44283103493398057,0.0015796465282808098,-0.0010024302267861405,0.0030947329597622274
2987.597,-0.44122193030893353,0.0015817188696423611,-0.0010017867905601184,0.003126176938847337
2987.63,-0.4397072835152069,0.00158820971162263,-0.0010008907863577818,0.003224549396069551
2987.663,-0.43818176789548335,0.0015939987128190114,-0.0010007393373367736,0.0033123151604399236
