time,x,y,z,theta
68.136,-1.6783288757224978e-05,2.9146210907641796e-05,-0.0010017013031760752,0.00045280004251197837
68.169,-1.6785662318414152e-05,2.9160363629579788e-05,-0.0010017013032266597,0.00045302372548174926
68.203,-1.678810781914142e-05,2.91749452805148e-05,-0.0010017013032787812,0.00045325418765882614
68.236,-1.6790481406414332e-05,2.918909811624404e-05,-0.0010017013033293554,0.0004534778724441032
68.269,-1.679285500654458e-05,2.9203251008091883e-05,-0.001001701303379919,0.0004537015581246786
68.303,-1.6795300547405544e-05,2.9217832834193873e-05,-0.0010017013034320371,0.0004539320230963498
68.336,-1.679767417364945e-05,2.923198584003844e-05,-0.0010017013034826251,0.00045415571059554647
68.369,-1.680004781273595e-05,2.924613890191009e-05,-0.0010017013035332131,0.00045437939898865535
68.402,-1.680249339371673e-05,2.9260720903068172e-05,-0.0010017013035853208,0.00045460986675324207
68.436,-1.680486705889911e-05,2.9274874078820453e-05,-0.0010017013036358914,0.0004548335569632151
68.469,-1.6807240736946196e-05,2.9289027310736247e-05,-0.0010017013036864794,0.0004550572480691694
68.504,-1.6809686358078453e-05,2.9303609487163098e-05,-0.001001701303738594,0.00045528771862989514
68.536,-1.6812060062218817e-05,2.9317762832943898e-05,-0.001001701303789182,0.00045551141155247734
68.569,-1.6814433779204375e-05,2.933191623475319e-05,-0.0010017013038397561,0.00045573510536899605
68.603,-1.6816879440456883e-05,2.9346498586228774e-05,-0.0010017013038918637,0.0004559655787225321
68.636,-1.6819253183555233e-05,2.93606521020248e-05,-0.0010017013039424622,0.00045618927435752554
68.669,-1.6821626939511353e-05,2.9374805673935404e-05,-0.0010017013039930397,0.00045641297088775865
68.703,-1.682407264090276e-05,2.938938820058773e-05,-0.0010017013040451613,0.0004566434470360439
68.736,-1.682644642294435e-05,2.9403541886305883e-05,-0.0010017013040957388,0.0004568671453820392
68.77,-1.6828820217846315e-05,2.9417695628154474e-05,-0.0010017013041463373,0.000457090844623517
68.803,-1.6831265959378356e-05,2.943227832999544e-05,-0.0010017013041984484,0.0004573213235667365
68.836,-1.6833639780390944e-05,2.944643218581144e-05,-0.0010017013042490364,0.00045754502462639875
68.869,-1.6836013614246557e-05,2.9460586097657256e-05,-0.0010017013042996313,0.0004577687265800192
68.903,-1.6838459395902318e-05,2.947516897456353e-05,-0.0010017013043517424,0.0004579992083163065
68.936,-1.684083325585511e-05,2.9489323000298073e-05,-0.0010017013044023304,0.00045822291208692155
68.969,-1.6843207128671312e-05,2.950347708217975e-05,-0.0010017013044529115,0.0004584466167532735
69.003,-1.6845652950481585e-05,2.9518060134360047e-05,-0.0010017013045050434,0.00045867710128579225
69.036,-1.6848026849401905e-05,2.9532214330162404e-05,-0.001001701304555614,0.00045890080776962315
69.069,-1.6850400761172623e-05,2.9546368582018745e-05,-0.001001701304606216,0.00045912451514778087
69.103,-1.6852846623107917e-05,2.9560951809264856e-05,-0.001001701304658341,0.00045935500247337914
69.136,-1.6855220560984922e-05,2.957510617507312e-05,-0.0010017013047089254,0.0004595787116694922
69.158,-1.68575945117236e-05,2.958926059701521e-05,-0.0010017013047595238,0.0004598024217611414
69.203,-1.686004041380213e-05,2.9603843999456794e-05,-0.0010017013048116488,0.00046003291188178674
69.236,-1.6862414390628015e-05,2.9617998535204837e-05,-0.0010017013048622542,0.00046025662378918137
69.269,-1.686478838031297e-05,2.963215312706324e-05,-0.0010017013049128318,0.00046048033659175716
69.303,-1.68672343225317e-05,2.964673670467199e-05,-0.0010017013049649602,0.00046071082950702386
69.336,-1.6869608338333786e-05,2.966089141053997e-05,-0.0010017013050155482,0.0004609345441284306
69.369,-1.6871982366989738e-05,2.9675046172499156e-05,-0.0010017013050661466,0.00046115825964473126
69.403,-1.68744283493452e-05,2.968962992525587e-05,-0.0010017013051182612,0.0004613887553543286
69.432,-1.6876802404089224e-05,2.9703784801026313e-05,-0.00100170130516887,0.0004616124726864574
69.469,-1.6879176471695356e-05,2.9717939732924442e-05,-0.001001701305219465,0.0004618361909140324
69.503,-1.688162249419839e-05,2.9732523660894414e-05,-0.0010017013052715865,0.0004620666894189548
69.536,-1.6883996587919916e-05,2.9746678706789283e-05,-0.0010017013053221883,0.0004622904094651699
69.57,-1.6886370694490973e-05,2.976083380873732e-05,-0.0010017013053727833,0.00046251413040570216
69.604,-1.688881675712163e-05,2.9775417911782527e-05,-0.0010017013054249221,0.00046274463170386
69.636,-1.68911908897903e-05,2.9789573127598347e-05,-0.0010017013054754997,0.000462968354461081
69.669,-1.6893565035323247e-05,2.980372839957535e-05,-0.0010017013055261086,0.0004631920781142576
69.703,-1.689601113811709e-05,2.9818312677921828e-05,-0.0010017013055782335,0.0004634225822090758
69.736,-1.689838530976066e-05,2.9832468063847228e-05,-0.0010017013056288354,0.000463646307680163
69.769,-1.690075949424899e-05,2.9846623505790833e-05,-0.0010017013056794338,0.0004638700340450395
69.803,-1.690320563716395e-05,2.9861207959180405e-05,-0.0010017013057315727,0.0004641005409326128
69.836,-1.6905579847762038e-05,2.9875363515065313e-05,-0.0010017013057821676,0.00046432426911529576
69.869,-1.69079540712231e-05,2.9889519127105152e-05,-0.0010017013058327764,0.0004645479981938384
69.903,-1.691040025430428e-05,2.990410375580406e-05,-0.0010017013058848945,0.00046477850787819935
69.936,-1.6912774503867727e-05,2.9918259481735432e-05,-0.0010017013059355102,0.000465002238773796
69.969,-1.6915148766282438e-05,2.9932415263717914e-05,-0.0010017013059861017,0.0004652259705636823
70.003,-1.691759498949081e-05,2.9947000067476823e-05,-0.0010017013060382475,0.0004654564830410585
70.037,-1.691996927801571e-05,2.9961155963421075e-05,-0.001001701306088839,0.0004656802166490635
70.069,-1.6922343579405755e-05,2.9975311915521278e-05,-0.0010017013061394409,0.0004659039511529476
70.103,-1.6924789842775578e-05,2.998989689456397e-05,-0.0010017013061915866,0.00046613446642672953
70.136,-1.6927164170263236e-05,3.000405296051663e-05,-0.0010017013062421955,0.0004663582027470776
70.169,-1.6929538510604327e-05,3.0018209082538487e-05,-0.0010017013062927974,0.0004665819399619915
70.203,-1.6931984814105242e-05,3.003279423667288e-05,-0.0010017013063449258,0.0004668124580292731
70.236,-1.6934359180565198e-05,3.0046950472702856e-05,-0.0010017013063955416,0.0004670361970630101
70.269,0.00043325723817522416,3.0344701290801194e-05,-0.0010013443487848252,0.00047156096228862047
70.303,0.0018150023213074256,3.096540777365243e-05,-0.001001392511658851,0.0004809800379455903
70.336,0.004049548134821011,3.1956796306872706e-05,-0.0010014803384448857,0.0004960153920573578
70.363,0.006928590253155039,3.4373624537903826e-05,-0.0010016887346414316,0.0023354993721891194
70.403,0.010201383407351146,4.968905447433462e-05,-0.0010017754580101228,0.008498991718301867
70.436,0.01344235199363973,8.663464368074514e-05,-0.0010018025098378416,0.01538968751503102
70.469,0.01668372152536712,0.000145907689341222,-0.001001844042803901,0.022269403800903604
70.503,0.020023475601804164,0.00023030931125645664,-0.001001898524651764,0.029357039349349783
70.536,0.023264918359589073,0.0003348761152055043,-0.0010019615744823046,0.03623457835133752
70.569,0.026505999813130256,0.00046172807222285065,-0.0010020263104626066,0.04309280971560019
70.603,0.029844426918334038,0.0006156645878784765,-0.001002100958106128,0.05015101637968036
70.636,0.03308335167165933,0.0007875810665098658,-0.00100217726964651,0.0569945442376733
70.669,0.03632036815898603,0.0009815933515445693,-0.0010022635539148166,0.06381455285956217
70.703,0.039651148110256454,0.0012044396282489633,-0.0010024196933945198,0.07080864265647659
70.736,0.04286364584121419,0.0014415056982663482,-0.001002246827430081,0.077345838528531
70.769,0.04604938211962313,0.0016968179182777947,-0.0010017134662652707,0.08350740430653779
70.803,0.049349012450568344,0.0019822958009735455,-0.001001806834702152,0.09013280896048169
70.836,0.05257324621429961,0.0022832395756118497,-0.0010021529365550445,0.09693383479425965
70.869,0.055797751948235406,0.0026064096864335663,-0.0010022954949983343,0.10367841225128482
70.903,0.05912260701468993,0.0029621643846521775,-0.0010024158103447076,0.1105674824193122
70.936,0.06232703801425432,0.0033275208945255067,-0.0010018612098954029,0.1174886790071642
70.969,0.06554188930510026,0.0037164509931678948,-0.0010022678731938794,0.12424835303994261
70.999,0.068847172180847,0.004139374187578998,-0.0010020857616107048,0.13126679762095955
71.036,0.07205269321960382,0.004571996848312653,-0.0010018843896924604,0.13808456457948973
71.069,0.07525601900449774,0.005026564405117015,-0.001001900955154223,0.1448776430675129
71.103,0.07855309955251649,0.005517635274551719,-0.0010018808004290808,0.1518841212743205
71.136,0.08174996935171794,0.006016365718403893,-0.001001849732160054,0.15869011055180043
71.169,0.0849440602420648,0.006536910591070299,-0.00100181741606261,0.16546637450554771
71.203,0.08823166103516018,0.0070959349355292,-0.0010017919014467455,0.17244842903494834
71.236,0.09141926732162627,0.007660542870086055,-0.0010017769472738247,0.17922539911685018
71.269,0.09460382336763909,0.008246817657374584,-0.0010017673551964562,0.18596827603777302
71.303,0.09788126009475247,0.008873408648846462,-0.001001767615391773,0.19291487285076458
71.336,0.10105865123621828,0.009503444588589205,-0.0010017716156629115,0.1996568342897842
71.369,0.10423263959243906,0.010155024462479052,-0.0010017838331052228,0.2063612309099543
71.403,0.1074987773637713,0.010848715230472244,-0.001001803109493514,0.21326750824439875
71.436,0.11066469939510011,0.011543665654882277,-0.0010018262856140055,0.21996804925247512
71.467,0.11382651955692152,0.012259895411274372,-0.0010018464938616606,0.2266218958103142
71.503,0.11707927520711811,0.01301984590520425,-0.001001868069467931,0.23346780109862073
71.536,0.12023141560445155,0.013778735093172468,-0.0010018955437568165,0.2401021583189622
71.569,0.12337871652999285,0.014558502592266282,-0.0010019381118425569,0.24668033493254157
71.603,0.1266153397132864,0.015383717114770715,-0.0010020476945546315,0.2534385029368847
71.636,0.12974231038413594,0.01620289783223449,-0.0010018993605478178,0.25985533857254123
71.667,0.13286507600047093,0.017042088124761528,-0.0010018448942115676,0.2662195715782796
71.703,0.13608625278725697,0.017930389432095368,-0.0010019209503809995,0.27290705239907675
71.736,0.13920637852173667,0.01881293751130603,-0.0010019723126304461,0.27937904398511626
71.769,0.14232109207087162,0.019715664431605013,-0.0010019828645477687,0.28579207398175116
71.803,0.14552433573727233,0.020666680518581938,-0.0010019972932847412,0.29239429694683905
71.836,0.14862768445598454,0.021610041098684765,-0.0010020143208324013,0.29880188195133295
71.869,0.1517256161460704,0.022573402357243408,-0.0010020313408386876,0.30516090708641586
71.903,0.15491096194745005,0.02358653920226558,-0.0010020470054768818,0.3117191588618354
71.936,0.157996121595167,0.02458981111998761,-0.0010020647380063231,0.31809297600913317
71.969,0.1610751512525819,0.025612753911801133,-0.001002084429806805,0.32442224050059826
72.003,0.16424043443806616,0.026686991127533734,-0.0010021129745955148,0.3309537487827964
72.036,0.16730543788201746,0.027749245503653278,-0.0010021551226104992,0.3373062887316792
72.069,0.17036345846754358,0.02883083141945278,-0.0010022085844152845,0.34361805647317656
72.103,0.17350174139893748,0.02996381890514255,-0.001002370340263778,0.35018930423338085
72.136,0.1765165631378815,0.03107466936767591,-0.0010020847914480983,0.35686000327232853
72.166,0.17949602995147637,0.03219559251251558,-0.0010013305795209745,0.36382130872801843
72.203,0.18257683108365852,0.03337936029963158,-0.0010014564064828348,0.37077059419742314
72.236,0.18559521990604128,0.0345621487512315,-0.0010020909268179876,0.3770890061529633
72.269,0.1886068489201341,0.03576413917534908,-0.0010020225611897873,0.3833495373428721
72.303,0.19170214091582263,0.03702233478753045,-0.0010020434628773105,0.38980142779637744
72.336,0.19469842893736886,0.038262506593731066,-0.0010020549037296107,0.3960677424276657
72.369,0.19768721378835138,0.039521463720485886,-0.0010020414839005155,0.4022670461263208
72.403,0.20075828954341465,0.04083786497411393,-0.0010020207602085898,0.40864583419850314
72.436,0.2037308483900987,0.042134206017020254,-0.0010020093115854917,0.41482741418522057
72.469,0.20669547848301328,0.0434489661486779,-0.001002024993407357,0.4209257275011795
72.503,0.20974042825603842,0.04482223003851969,-0.0010020938521315553,0.42718236741293775
72.536,0.21267489092149325,0.04616707166354176,-0.0010017622144674714,0.4330461791557602
72.569,0.2156029822284038,0.04752941953316133,-0.0010016448081779442,0.43883648614384396
72.603,0.21862549503599585,0.048957796543324945,-0.0010017623513240426,0.4450137088489342
72.636,0.22154992259759432,0.050361624251386745,-0.001001816146306636,0.45098748709455955
72.669,0.22446647772583628,0.051783031978909454,-0.0010017928180801536,0.4568772123076336
72.703,0.22746292592518497,0.05326559303361917,-0.0010017702529819192,0.4629392838754252
72.736,0.23036306411557458,0.0547221223838838,-0.0010017507339412542,0.46882147036525734
72.769,0.23325571498953154,0.0561961417192751,-0.0010017401767620122,0.47462717784126385
72.803,0.23622756842807136,0.05773264044624922,-0.0010017408619042295,0.48060723735025385
72.836,0.23910370496565167,0.05924118728081612,-0.001001747135161886,0.4864108222034341
72.867,0.24197222834064247,0.06076690295587159,-0.001001758241297574,0.4921351178555122
72.903,0.24491905796348581,0.06235629876952591,-0.0010017763279812353,0.49803150941896845
72.936,0.24777073993731288,0.06391583082823211,-0.001001798032222681,0.5037539887226146
72.969,0.2506146453428072,0.06549219368648874,-0.001001827804995449,0.5093964377319381
73.003,0.2535359411650182,0.06713339045464427,-0.0010018679789601213,0.5152088665344636
73.036,0.25636266068082486,0.06874282009891637,-0.0010019169115264258,0.5208506674593801
73.069,0.25918137674999514,0.07036868755645262,-0.0010019729597484928,0.5264111692743983
73.103,0.26207620117309904,0.07206029492102095,-0.0010020268683638318,0.5321451132170417
73.136,0.26487659096078475,0.07371801700497128,-0.0010020766430197565,0.5377183591242064
73.168,0.26766834129130307,0.07539157975056149,-0.0010021323287092952,0.5432152006576213
73.203,0.27053489127568764,0.07713179951817062,-0.0010022001025615686,0.5488876348396519
73.236,0.27330727532746424,0.07883613716058109,-0.0010022764066978038,0.5544032383351635
73.269,0.2760704708943225,0.08055575894322625,-0.0010023330768434181,0.5598354667059828
73.303,0.27890333772830844,0.08234051948980427,-0.0010025234145709591,0.5654819412487869
73.336,0.28162924873790707,0.08407965448617019,-0.001002531174736504,0.5711328851908881
73.369,0.2843153330194487,0.08581529043003717,-0.001001626720467868,0.5770895094255474
73.403,0.2870808936743699,0.08762608561646137,-0.0010017070995140959,0.5830735437935648
73.436,0.28977818991103244,0.08941444953307175,-0.0010023319591146926,0.5883235128804587
73.469,0.29245723323779516,0.09120986226687465,-0.001001693839072313,0.5932414603973757
73.503,0.29522444849916757,0.09308481566725511,-0.0010021230033437668,0.5985879597285988
73.536,0.2979034258539508,0.0949208058291203,-0.0010020129466343508,0.6038313766333178
73.569,0.3005734704840276,0.0967711543004163,-0.001001949536039902,0.6089818500835469
73.603,0.3033145983463584,0.09869202956117726,-0.0010018926949412164,0.6142835804245956
73.636,0.30596566643364026,0.10057051392181117,-0.001001839166180945,0.6194285242431806
73.669,0.30860821360692725,0.10246329164389502,-0.001001796961892433,0.6244762228669337
73.703,0.3113212879102602,0.10442768634407779,-0.0010017640517663781,0.6296755079740732
73.736,0.31394523243554884,0.10634809370822776,-0.0010017401413424075,0.6347215819996446
73.769,0.31656069905484063,0.10828246834598136,-0.0010017186131308677,0.6396681616224776
73.802,0.31924588081532246,0.11028933509194687,-0.0010017005144802964,0.644763068517156
73.836,0.32184274297772975,0.11225058924819528,-0.001001690955811204,0.6497075949861099
73.869,0.3244311377159614,0.11422545212121983,-0.0010016879156695378,0.6545502207561911
73.903,0.3270884448731978,0.11627363232275315,-0.0010016903765697575,0.659537710896996
73.936,0.3296582832846414,0.11827459864142302,-0.0010017006254744477,0.6643777384132834
73.965,0.33221969981041866,0.12028881658588225,-0.001001719055423421,0.6691136354148234
74.003,0.334849262489965,0.12237715375309785,-0.0010017464441808323,0.6739910376325383
74.036,0.3373922236960883,0.12441671524771515,-0.0010017795262222129,0.6787241962869599
74.069,0.3399268232439621,0.1264691724020063,-0.0010018203893173427,0.6833512387365951
74.103,0.34252881773930793,0.12859650495389124,-0.0010018689079878927,0.688116421337001
74.136,0.3450450592961919,0.13067350725738267,-0.0010019257747769447,0.6927401349375545
74.169,0.34755288290338754,0.1327629372840155,-0.0010019900611848952,0.6972531926788735
74.203,0.35012704027260666,0.13492767350127705,-0.0010020587881726002,0.7018948321668212
74.236,0.35261593374455036,0.13704019992798164,-0.0010021346471363497,0.7063921972427268
74.269,0.3550959739687545,0.13916426349299568,-0.0010022052562726445,0.7107744722209877
74.303,0.35764070915555374,0.1413633872695171,-0.0010022982219582768,0.7152801633652643
74.336,0.3600989204641974,0.14350682322276814,-0.0010024381798297566,0.7196219873438376
74.363,0.36253932246000603,0.1456533796248907,-0.0010022965035256619,0.7236939234337729
74.403,0.3650313688110556,0.14786283828879665,-0.0010018546180349842,0.7276397736285609
74.436,0.3674580381732265,0.15003175392308254,-0.001002351496344471,0.7318064492492333
74.469,0.369878885371066,0.15221399324952609,-0.0010024049095595199,0.7359784437228425
74.503,0.37235937521199497,0.15446935824287272,-0.00100245175756037,0.7403286643640848
74.536,0.374734486086195,0.15664816542345467,-0.0010015865670848466,0.7449010562019223
74.569,0.37709945160404573,0.15883757077548372,-0.0010014622533994245,0.749380441764271
74.603,0.3795527884438978,0.16112861541229997,-0.001002105798569384,0.7535925578762911
74.636,0.3819253927456782,0.1633626709599105,-0.0010019789840651078,0.7576770682824676
74.669,0.3842899376826992,0.16560718343652853,-0.0010019065544245864,0.7616485433260637
74.703,0.38671692590738893,0.16792962830045094,-0.0010019002124162409,0.765744677942771
74.736,0.3890634872309454,0.170193326581579,-0.0010018596677672346,0.7697261349470018
74.769,0.3914021840623959,0.17246726217167277,-0.001001821473934933,0.7735900620131985
74.803,0.3938029176060158,0.1748198976050861,-0.0010017860657835706,0.7775698716313991
74.836,0.3961244462026484,0.1771128265619682,-0.0010017642972812782,0.7814321373975539
74.869,0.39843837200855475,0.1794157153888951,-0.0010017525311921925,0.7851734844936389
74.903,0.40081383254005215,0.18179785378396068,-0.0010017463667186116,0.7890258204726733
74.936,0.40311105906903794,0.18411908986340048,-0.0010017450767062265,0.7927637748453863
74.969,0.40540088954725256,0.186449980599061,-0.0010017534155498768,0.7963788457382149
75.003,0.4077517445275261,0.1888606111588884,-0.0010017629500915955,0.8001008961332402
75.036,0.4100252996675158,0.19120914129091876,-0.001001780789263506,0.8037121544048499
75.069,0.41229166631791464,0.19356698092460028,-0.0010018097756972454,0.8071984933123986
75.103,0.41461852164639895,0.19600494666062207,-0.001001844992843802,0.8107857991643435
75.136,0.41686881359606753,0.19837943280533374,-0.0010018794878164476,0.8142607763502332
75.169,0.41911188384359194,0.20076257475681178,-0.0010019227866188314,0.8176021246040206
75.203,0.42141471679200176,0.20322587452463656,-0.0010019697981238918,0.8210327268662693
75.236,0.4236417090263219,0.20562422792777688,-0.001002030842619378,0.8243495693644506
