time,x,y,z,theta
113.432,-0.700030361137476,6.521639155888523e-05,-0.0010013930287971866,0.0010191382558793693
113.466,-0.7000303643942456,6.523544808690835e-05,-0.0010013930288267636,0.001019438815494201
113.499,-0.7000303677497195,6.525508212965968e-05,-0.0010013930288572323,0.001019748483692954
113.532,-0.7000303710065168,6.527413874342991e-05,-0.0010013930288868128,0.0010200490446989605
113.565,-0.7000303742633278,6.529319539934005e-05,-0.0010013930289163794,0.001020349606388748
113.599,-0.7000303776188443,6.531282957387621e-05,-0.0010013930289468481,0.001020659276725675
113.632,-0.7000303808756831,6.533188631552549e-05,-0.0010013930289764286,0.0010209598398065154
113.665,-0.7000303841325355,6.535094309937824e-05,-0.0010013930290059883,0.0010212604035721008
113.699,-0.7000303874880947,6.537057740570114e-05,-0.0010013930290364709,0.00102157007604723
113.732,-0.7000303907449749,6.5389634275298e-05,-0.0010013930290660514,0.0010218706412039448
113.765,-0.7000303940018686,6.540869118702658e-05,-0.0010013930290956215,0.00102217120704432
113.799,-0.7000303973574706,6.542832562515135e-05,-0.0010013930291261006,0.0010224808816578857
113.832,-0.7000304006143921,6.544738262259744e-05,-0.0010013930291556741,0.0010227814488889897
113.865,-0.7000304038713273,6.546643966221561e-05,-0.0010013930291852408,0.0010230820168043644
113.899,-0.700030407226972,6.548607423209262e-05,-0.0010013930292157198,0.0010233916935556127
113.932,-0.700030410483935,6.550513135750791e-05,-0.0010013930292453004,0.0010236922628629236
113.965,-0.7000304137409116,6.552418852505022e-05,-0.001001393029274867,0.0010239928328538241
113.999,-0.7000304170965989,6.55438232267139e-05,-0.001001393029305346,0.001024302511743283
114.032,-0.7000304203536032,6.556288048000791e-05,-0.0010013930293349196,0.0010246030831254315
114.065,-0.7000304236106213,6.558193777547707e-05,-0.0010013930293645036,0.0010249036551918988
114.099,-0.6998281913556882,6.606041021227391e-05,-0.0010014070303274725,-0.0006355358209116823
114.132,-0.6995910017516128,6.620723062335029e-05,-0.0010013955236102823,-0.0026953344951858795
114.165,-0.699353766997547,6.586561545531938e-05,-0.0010013966134099286,-0.004755506836364038
114.199,-0.6991449229859857,6.505582385655683e-05,-0.001001401095409745,-0.005887352262104613
114.232,-0.6989434603296953,6.405334728777981e-05,-0.0010013978815808372,-0.006969726369579419
114.265,-0.6987419591199159,6.283291385638726e-05,-0.0010013989234731388,-0.008052347210135969
114.299,-0.6985796598754374,6.159538571067773e-05,-0.0010014031125252405,-0.008396182224722317
114.332,-0.6984234060102957,6.035655908179363e-05,-0.0010013993778120907,-0.00871579396808035
114.365,-0.6982671232122631,5.906799161008812e-05,-0.0010014001896508917,-0.009035531524695958
114.399,-0.6980976798498943,5.758289698098489e-05,-0.0010013998793518344,-0.009233381027005029
114.432,-0.6979331430131287,5.6113549051410487e-05,-0.0010014012246787572,-0.009425277214542584
114.465,-0.6977685767186367,5.461228937859357e-05,-0.0010014020019108033,-0.009617285167101641
114.499,-0.6976364980212936,5.339079560882459e-05,-0.001001412549445229,-0.00928141896552287
114.532,-0.6975090569405651,5.2166600505873903e-05,-0.0010014100025689775,-0.008946780331266717
114.565,-0.6973815935631471,5.0984853951741797e-05,-0.0010014106829995817,-0.008612167586293835
114.599,-0.697264874410127,4.9948023785500774e-05,-0.0010014123018961159,-0.008326767897334381
114.632,-0.6971516599175445,4.89731205556038e-05,-0.0010014118341353795,-0.00804978970308504
114.665,-0.6970384257171797,4.802938122993218e-05,-0.0010014124269007371,-0.007772837177904428
114.699,-0.696889375946935,4.687299535236799e-05,-0.0010014119170521918,-0.0076104225701506415
114.732,-0.696744469167561,4.5764397182253345e-05,-0.0010014149799906572,-0.007453561074320048
114.765,-0.6965995374299024,4.467847244573897e-05,-0.0010014156911751781,-0.007296762650898094
114.799,-0.6961567644926894,4.1420320687900124e-05,-0.001001420857142877,-0.007771520927585512
114.832,-0.6955256283979994,3.648469959703884e-05,-0.0010014056467711682,-0.008348937368801114
114.865,-0.694884855728975,3.1111515072150534e-05,-0.0010014199828720302,-0.008917207001594945
114.899,-0.6938871715557596,2.2217382864126383e-05,-0.0010014127678237943,-0.008526015519837017
114.932,-0.69281538058016,1.337497937642757e-05,-0.0010014417034887174,-0.007528210287541662
114.965,-0.6917433918389333,5.599911242895443e-06,-0.0010014495868842996,-0.006530852522941965
114.999,-0.6903991172818829,-2.772759665776949e-06,-0.0010014650271470207,-0.005422925017702045
115.032,-0.6890534632163879,-9.537085913669347e-06,-0.001001474622878331,-0.004174484440497722
115.065,-0.6877075566668454,-1.4624597322167774e-05,-0.0010014882253081073,-0.0029264802306319363
115.099,-0.6860746717190082,-1.8855000503178846e-05,-0.0010015109228297438,-0.0019839741581342894
115.132,-0.6844464793533728,-2.1566577866401177e-05,-0.0010015280801193086,-0.0010616321825451115
115.165,-0.6828179783125233,-2.277957268803899e-05,-0.0010015501224754572,-0.00014007454696719285
115.199,-0.6810187024925218,-2.2658472568749478e-05,-0.0010015787398731449,0.0004201297749337471
115.232,-0.6792643733325403,-2.163952178187342e-05,-0.0010016053976017077,0.0009310344088633603
115.265,-0.6775096368440634,-1.9743783915778337e-05,-0.00100163331196345,0.0014405674765114243
115.299,-0.6755018493599422,-1.671559988425822e-05,-0.0010016449452918165,0.0018015938286760614
115.332,-0.6735197835812491,-1.3014680490012786e-05,-0.0010016807799734552,0.0022180742211379877
115.365,-0.6715371683631977,-8.519681890705709e-06,-0.0010017184284729815,0.0026360447005098994
115.399,-0.6693329868136064,-2.449158737224357e-06,-0.0010018007110822423,0.003308609800055797
115.432,-0.6671652007052719,5.269957223649855e-06,-0.0010018341898826583,0.004179840106442261
115.465,-0.6649972365757888,1.4839693903093535e-05,-0.0010018584222620912,0.005047141790739794
115.499,-0.6626345560943696,2.7142464834541073e-05,-0.001001853340294033,0.005741879393101349
115.532,-0.6603177361172682,4.068341783631399e-05,-0.0010018946590266836,0.006492931089926897
115.565,-0.6580008750285008,5.599959608019108e-05,-0.0010019401976384575,0.007247897228167467
115.599,-0.6555900063888206,7.421912653605324e-05,-0.0010020507808773498,0.008610675772654846
115.632,-0.6532182222061074,9.608601271418382e-05,-0.0010020699757001539,0.010328597888222803
115.665,-0.650857896878828,0.00012152072372647097,-0.001002076592411881,0.011851797821290524
115.699,-0.6484567408482703,0.00014927490389439707,-0.001001766281189892,0.012454571782012567
115.732,-0.6461561113183469,0.0001818126793724946,-0.0010008042109289489,0.01294853201188018
115.765,-0.6438407170201039,0.0002136196377126294,-0.0010005840833200406,0.013431498498975515
115.799,-0.6413655546979249,0.00024836782008162087,-0.0010005525681831134,0.013959189941944847
115.832,-0.638821429488823,0.00028471234739440654,-0.0010014830158655806,0.014615778693099405
115.865,-0.6361875937357263,0.00032487108480863447,-0.0010017300656416338,0.01631956556805591
115.899,-0.6333653870890801,0.00037304957827979544,-0.0010016219318239004,0.018097793368305932
115.932,-0.6306048877048738,0.0004250050993340546,-0.0010016672947545172,0.019861654568062177
115.965,-0.6278446258023059,0.00048182991743667993,-0.001001626430436317,0.021628618707236015
115.999,-0.6249785901958013,0.0005458990632896751,-0.0010015863892419048,0.023384574508557982
116.032,-0.6221964677478131,0.0006129055402451937,-0.0010015398501235818,0.02508799791782317
116.065,-0.6194140530179005,0.0006846616659890073,-0.0010015078087860889,0.026790715292192464
116.099,-0.6164682966228566,0.0007647477566480622,-0.0010014659861893593,0.027719267880046763
116.132,-0.6136028037985595,0.0008451760719584428,-0.0010014336485082015,0.028552415947403275
116.165,-0.6107368985058825,0.0009280069723456802,-0.0010014174086555166,0.029384276794740274
116.199,-0.6077088044400272,0.0010177614596627515,-0.0010013941426641262,0.02995031699722275
116.232,-0.6047667207875445,0.0011065439743143278,-0.0010013928502425155,0.030475960537789247
116.265,-0.6018241913281693,0.0011968863750638373,-0.0010013880710258508,0.0310003272036682
116.299,-0.5987526126342226,0.0012943285494515684,-0.0010014088055176132,0.032475102810546795
116.332,-0.5957692286440727,0.0013927287763959122,-0.001001392189486281,0.03395192615548479
116.365,-0.5927854816394101,0.0014959038443636188,-0.0010014050500227432,0.03542793733621847
116.399,-0.5896991980167157,0.0016068038963502613,-0.0010014258471757048,0.036588292365251615
116.432,-0.5867031506963439,0.0017178686302015771,-0.001001454709110547,0.037711827375206404
116.465,-0.5837066661454111,0.0018323168812328843,-0.0010014883273593254,0.038834047674921095
116.499,-0.5805745977256199,0.001955608011792589,-0.0010015275131773013,0.040061957126982795
116.532,-0.5775337159050118,0.002078993029883684,-0.001001573741096707,0.04125479543643764
116.565,-0.5744923842355031,0.002206023341363818,-0.0010016274398259133,0.042446852296933964
116.599,-0.5713288546503222,0.0023422055594998965,-0.0010016900641022855,0.043838847608183275
116.632,-0.5682579471988496,0.0024786188099226586,-0.0010017563738096771,0.04518763093916669
116.665,-0.5651870944301538,0.0026191724496726983,-0.0010018430863190514,0.04653087608366394
116.699,-0.5619886201128805,0.002769482987658354,-0.0010018867557899068,0.04764990231794032
116.732,-0.5588829445052593,0.002918737328990682,-0.0010018969579328636,0.04874930640558636
116.765,-0.5557762021073621,0.003071417921459806,-0.0010019294231783313,0.04986186961208888
116.799,-0.5525502631552579,0.00323372781977733,-0.001001996732947246,0.05093499326926537
116.832,-0.5494185402501922,0.003394402105483962,-0.0010020577255914417,0.051964549056017446
116.865,-0.5462991757216756,0.0035574260540609864,-0.001002033277842939,0.05288248107727163
116.899,-0.5430764589924666,0.00372975385903292,-0.0010021634379418776,0.054287944174583
116.932,-0.5399931803855221,0.003900035710214526,-0.0010016337410866244,0.05613411446944486
116.965,-0.5369519155346255,0.004073949016244847,-0.0010009901411177288,0.058434815197463914
116.999,-0.5337954133499639,0.004261839793440096,-0.0010009457386299,0.06064037292188296
117.032,-0.530664383504538,0.004454181972793381,-0.0010016976170607352,0.06201893247142806
117.065,-0.5275098867651274,0.0046515467381643,-0.0010016580619131021,0.06313364053833595
117.099,-0.5242300022183454,0.004859715066761492,-0.0010015869387469158,0.06367478106991696
117.132,-0.5210432054585628,0.005063560601177925,-0.0010015577149959619,0.06416400811852335
117.165,-0.5178561991468235,0.005268986476524784,-0.0010015095275965162,0.06465344078352478
117.199,-0.5145742260577701,0.0054832882535099025,-0.0010014721843220505,0.06597691522020832
117.232,-0.5113883056022838,0.005695529111630591,-0.0010014386320078422,0.06726903316420908
117.265,-0.5082021536767928,0.005911921193315478,-0.0010014159151993905,0.06855959325518618
117.299,-0.5049128385188705,0.0061393892374935165,-0.0010014002007000117,0.06969948324263166
117.332,-0.5017199226054591,0.0063637866567189776,-0.0010013914259906775,0.0708033979244582
117.365,-0.49852671850760527,0.006591742689120794,-0.001001385442992546,0.07190566219000238
117.399,-0.49522436422063904,0.006831508507275938,-0.0010013846425364244,0.07326036759377992
117.432,-0.492018820061815,0.007068548032493344,-0.0010013944751859696,0.07457419843699384
117.465,-0.4888130201063018,0.007309838730422112,-0.0010014118026041297,0.07588653547486088
117.499,-0.48550687673470483,0.0075633602553022835,-0.0010014311669851242,0.07741900082593586
117.532,-0.48229772179243047,0.007814317568088737,-0.0010014605656281164,0.07890552028575588
117.565,-0.47908832645911453,0.008070088608186763,-0.0010014978321210045,0.08039072156891236
117.599,-0.47577789835675555,0.008338877591979148,-0.001001544366743247,0.08188341829312208
117.632,-0.47256458971269644,0.008604529607290808,-0.0010015959914911818,0.08333056350630212
117.665,-0.46935122603974816,0.008874864007863638,-0.001001650527785003,0.08477482638994306
117.699,-0.46603373328782866,0.009158556261493983,-0.0010017268136994703,0.08604167382504777
117.732,-0.46281393576508284,0.009437900743165233,-0.001001789017147564,0.0872637428509018
117.764,-0.45959393828474976,0.009721149944291399,-0.0010018447949735505,0.0884859461199201
117.799,-0.45627476676136847,0.01001777217036372,-0.0010018839669744817,0.09008446816164307
117.832,-0.45305217817712784,0.01031130148961318,-0.0010019819468810968,0.091669051864735
117.865,-0.44983536006483144,0.010609201101649986,-0.0010020394877868072,0.0931897067285818
117.899,-0.44651840771679957,0.010920800985574654,-0.0010018931044673482,0.09438362711034234
117.932,-0.44329225673379896,0.011227860669097495,-0.001001953411278355,0.09564244018393651
117.965,-0.4400689429350473,0.01153862899942531,-0.0010020841223705758,0.0968985510924905
117.999,-0.4367598420192709,0.011862783969066669,-0.001002206862059981,0.09845996154321113
118.032,-0.433597518671998,0.012178134314926049,-0.001001392951960809,0.10052724974993524
118.065,-0.430470323689279,0.012496899790285938,-0.001000961797165422,0.10298179378761983
118.099,-0.42722312789449457,0.01283586458002501,-0.001000951800265059,0.10513846481791468
118.132,-0.42401638000940145,0.01317643750444724,-0.0010016500797544285,0.10660632351437942
118.165,-0.4208059410011548,0.013521945249524372,-0.001001596849261755,0.10802962665137604
118.199,-0.41747738514075844,0.013884301761322507,-0.001001573678638016,0.1089611769571543
118.232,-0.41424523017748643,0.014239097962554171,-0.0010015288864703605,0.10984806103161229
118.265,-0.4110130023798189,0.01459680384188259,-0.001001481906352273,0.11073445432938188
118.299,-0.4077089336573701,0.014966073744930244,-0.0010014472725806342,0.11208054574784095
118.332,-0.40450225406090434,0.015328781753850657,-0.0010014232218291466,0.1133879310480888
118.365,-0.4012955303777668,0.015695739556917082,-0.0010014073091762464,0.1146937020391061
118.399,-0.39800151114345034,0.016077669721046593,-0.0010013988956473555,0.11644117088338969
118.432,-0.3948045558205365,0.016453931617660053,-0.0010013934491620857,0.11813722980374693
118.465,-0.39160768876736557,0.01683567719200695,-0.0010013947917030183,0.11983183461529986
118.499,-0.3883052499703825,0.01723557258776358,-0.0010014047655417697,0.1214210590595117
118.532,-0.38509989332969013,0.017628796322513438,-0.0010014197969507484,0.12296167866501075
118.565,-0.3818945488912125,0.018027026614105945,-0.0010014442070970103,0.12450103808754327
118.599,-0.37859037333913953,0.018442638008650758,-0.0010014741636849463,0.12598887420362667
118.632,-0.3753833287848733,0.018850799485862386,-0.0010015124618843047,0.1274312508409631
118.665,-0.37217632079635526,0.01926365290500925,-0.0010015594825114743,0.12887170674045112
118.699,-0.36887354226530833,0.019693874261353765,-0.001001606435899683,0.13044736416895245
118.732,-0.36566832364366886,0.020116443623681715,-0.001001654271740298,0.13197187877990094
118.765,-0.3624636779523042,0.020543897855790225,-0.0010017224133436337,0.13348957886947782
118.799,-0.3591714396245538,0.020988458126321347,-0.001001779812754875,0.1352787266259048
118.832,-0.35597544550410987,0.021425971018318106,-0.001001839021385658,0.1370309002374755
118.865,-0.35277874040232754,0.021869486660740806,-0.0010019748912346096,0.13880211306433843
118.899,-0.3495038974918483,0.022329411694891756,-0.0010017317359559894,0.14042766126871126
118.932,-0.3463234835933933,0.02278117860526975,-0.001001937729382528,0.14205435270995548
118.965,-0.34314151044887226,0.02323857321290805,-0.0010019181556769861,0.1437229038249262
118.999,-0.33987000888409874,0.023714394863146814,-0.0010019446421297776,0.14539537103272665
119.031,-0.33669645169445916,0.024181241819089636,-0.0010019875188568075,0.14702589869193403
119.066,-0.3335255674526505,0.024653093706535213,-0.001002064676711472,0.14867597285113834
119.099,-0.33027871215454435,0.025142181219092653,-0.0010021163207559712,0.15045570493665755
119.132,-0.3271797202062781,0.025615266553374233,-0.0010012173873501229,0.1527717733707483
119.165,-0.32410992072370975,0.02609149439327638,-0.0010009136285415374,0.15540954726159723
119.199,-0.32091624371996813,0.026595517834142865,-0.0010009609471924794,0.15775643065852182
119.232,-0.3177688206821429,0.02709863377562468,-0.0010015722770515094,0.15948455984967042
119.265,-0.3146204106552417,0.027607380376819864,-0.0010015770617323935,0.1611950130612161
119.299,-0.3113668195168559,0.028138319170851144,-0.001001555704719343,0.16251503043763182
119.332,-0.3082086942211321,0.028657861026147688,-0.001001508832382897,0.16378891707947554
119.365,-0.3050508396021398,0.029181491426745115,-0.0010014721937414706,0.16506213783942147
119.399,-0.30179781886992973,0.029725421865621614,-0.0010014435201737074,0.16651473915843176
119.432,-0.2986407369153795,0.030257958478899886,-0.0010014249374314527,0.16792367854474802
119.465,-0.29548387681115423,0.03079503065313628,-0.0010014143998215742,0.1693311017606418
119.499,-0.2922389559336832,0.03135201214795979,-0.0010014119473215483,0.17089460798819758
119.532,-0.2890897983782017,0.031897551600206395,-0.0010014164524684982,0.17241119617555886
119.565,-0.2859408942964862,0.03244796029842024,-0.0010014204837321232,0.17392666041318364
119.599,-0.28269811292478286,0.03302020113821324,-0.0010014385323850704,0.1756935940927575
119.632,-0.27955109580354415,0.03358119061181714,-0.001001459468466262,0.1774082630991432
119.665,-0.27640446573197985,0.03414767517072291,-0.001001489514545647,0.17912161537086166
119.699,-0.2731747941754533,0.03473497251786434,-0.0010015238555054762,0.18093234015899307
119.732,-0.2700409386072691,0.03531062081872439,-0.001001558852059322,0.18268543932704787
119.765,-0.26690790169538864,0.035891791662962816,-0.0010016002153942632,0.18443299775672137
119.799,-0.26368629151168366,0.036495255535510064,-0.0010016605030888637,0.18620217117968113
119.832,-0.260560420403447,0.037086368944487275,-0.00100170466378207,0.1879127490948733
119.865,-0.25743431709542997,0.03768344418758002,-0.0010017844231356432,0.18963650026689172
119.899,-0.25422289780923885,0.038302774857368035,-0.001001910597922439,0.19150584377640412
119.932,-0.25112513367528927,0.03890557047594352,-0.0010014466224484708,0.19305216150732568
119.965,-0.24801047022839492,0.03951688422929318,-0.001001852141814176,0.19485022240650907
119.999,-0.24483092893081287,0.04014707830723793,-0.0010018322372736081,0.19675743006756397
120.032,-0.24174656552940704,0.04076441554481161,-0.0010018148251843724,0.19861154294984476
120.065,-0.2386636087384435,0.041387408325019165,-0.0010018389176971593,0.20046998625367327
120.099,-0.23548601522397625,0.04203579423852154,-0.0010018638416563752,0.2024091337808735
120.132,-0.23240357926249502,0.04267088787672187,-0.0010019021113960927,0.20430043421418992
120.165,-0.22932341595563224,0.043311564029147466,-0.0010019649029065006,0.20620748767218014
120.199,-0.22615167915049383,0.04397799527835024,-0.0010020814283400216,0.20817193005410764
120.232,-0.22309955671785184,0.04462585518617084,-0.0010019634892827617,0.21037247469913314
120.265,-0.2201018061079454,0.04526980909078624,-0.001000986712783921,0.213182962070066
120.299,-0.21701898987227092,0.045941117270579916,-0.0010008782271310156,0.21592421838184528
120.332,-0.21397786265995913,0.04661134684742263,-0.0010014658591941013,0.21800266164710946
120.364,-0.21091302650086813,0.047292688820841915,-0.001001593891570271,0.21979849187805506
120.399,-0.20774024964312682,0.04800339206102163,-0.0010015414918669724,0.22110545004984405
120.432,-0.20465984978553456,0.04869749812101624,-0.001001530066554051,0.2223558475572384
120.465,-0.20158006669718578,0.04939551172273516,-0.0010014944012649782,0.22360700653911209
