time,x,y,z,theta
33.403,-0.7000225027733594,1.9123683256744314e-05,-0.0010013929581901282,0.0002922205284031741
33.435,-0.7000225059971317,1.9142637660848366e-05,-0.0010013929582188587,0.00029251943061640065
33.468,-0.7000225092209175,1.9161592106996156e-05,-0.0010013929582475926,0.00029281833351188865
33.502,-0.7000225125424077,1.9181120974137664e-05,-0.001001392958277187,0.00029312629478239494
33.535,-0.7000225157662211,1.9200075505510497e-05,-0.001001392958305921,0.0002934251990610087
33.569,-0.7000225189900479,1.921903007882803e-05,-0.001001392958334648,0.00029372410402038273
33.602,-0.7000225223115805,1.9238559077069238e-05,-0.0010013929583642424,0.000294032067418474
33.635,-0.7000225255354349,1.925751373565575e-05,-0.0010013929583929868,0.00029433097376164037
33.668,-0.7000225287593026,1.927646843628116e-05,-0.0010013929584217068,0.0002946298807869974
33.702,-0.7000225320808776,1.9295997565639886e-05,-0.0010013929584513082,0.0002949378463129439
33.735,-0.700022535304773,1.9314952351500454e-05,-0.0010013929584800525,0.0002952367547215815
33.768,-0.7000225385286816,1.9333907179398804e-05,-0.0010013929585087795,0.00029553566381239197
33.802,-0.700022541850299,1.9353436439837123e-05,-0.001001392958538374,0.0002958436314656248
33.835,-0.7000225450742353,1.937239135297285e-05,-0.0010013929585671148,0.0002961425419397512
33.868,-0.7000225482981851,1.939134630805615e-05,-0.001001392958595835,0.00029644145309468193
33.902,-0.7000225516198446,1.9410875699698856e-05,-0.0010013929586254466,0.00029674942287709414
33.935,-0.7000225548438219,1.9429830740029755e-05,-0.0010013929586541806,0.0002970483354155009
33.968,-0.7000225580678128,1.9448785822352692e-05,-0.0010013929586829007,0.0002973472486353876
34.002,-0.7000225613895146,1.9468315345061116e-05,-0.0010013929587125193,0.0002976552205448777
34.035,-0.7000225646135327,1.948727051262557e-05,-0.0010013929587412464,0.0002979541351481444
34.069,-0.7000225678375647,1.9506225722254215e-05,-0.0010013929587699803,0.0002982530504339857
34.103,-0.7000225711593087,1.9525755376020865e-05,-0.0010013929587995886,0.0002985610244704432
34.135,-0.7000225743833679,1.9544710670912965e-05,-0.001001392958828319,0.0002988599411400017
34.168,-0.7000225776074409,1.9563666007718107e-05,-0.0010013929588570496,0.00029915885848984383
34.202,-0.7000225809292272,1.958319579261601e-05,-0.0010013929588866578,0.0002994668346543784
34.235,-0.7000225841533274,1.9602151214755174e-05,-0.0010013929589153849,0.00029976575338900864
34.268,-0.7000225873774415,1.9621106678853557e-05,-0.0010013929589441292,0.00030006467280462327
34.302,-0.70002259069927,1.9640636594886887e-05,-0.001001392958973741,0.0003003726510972987
34.335,-0.7000225939234114,1.965959214424441e-05,-0.001001392959002475,0.00030067157189656805
34.368,-0.7000225971475663,1.9678547735583886e-05,-0.0010013929590312089,0.0003009704933771655
34.402,-0.7000226004694371,1.9698077782742487e-05,-0.0010013929590608275,0.0003012784737978311
34.435,-0.7000226036936195,1.9717033459363828e-05,-0.0010013929590895546,0.00030157739666243025
34.468,-0.7000226069178155,1.9735989177940682e-05,-0.0010013929591182816,0.0003018763202079585
34.502,-0.7000226102397283,1.975551935620398e-05,-0.0010013929591479072,0.000302184302756305
34.535,-0.700022613463952,1.9774475160068665e-05,-0.0010013929591766342,0.00030248322768592457
34.568,-0.700022616688189,1.9793431005949425e-05,-0.0010013929592053786,0.0003027821532973893
34.602,-0.7000226200101443,1.9812961315339258e-05,-0.00100139295923498,0.0003030901379737476
34.635,-0.7000226232344089,1.9831917246530974e-05,-0.0010013929592637277,0.0003033890649696563
34.668,-0.7000226264586868,1.9850873219632292e-05,-0.0010013929592924582,0.0003036879926458006
34.702,-0.7000226297806844,1.987040366012849e-05,-0.00100139295932207,0.0003039959794498679
34.735,-0.70002263300499,1.988935971851064e-05,-0.0010013929593508143,0.00030429490850999877
34.768,-0.700022636229309,1.9908315818922514e-05,-0.0010013929593795518,0.00030459383825218867
34.802,-0.7000226395513489,1.992784639049825e-05,-0.0010013929594091635,0.00030490182718356074
34.835,-0.7000226427756955,1.9946802576127832e-05,-0.0010013929594378974,0.0003052007583087822
34.869,-0.7000226460000555,1.99657588038139e-05,-0.0010013929594666453,0.00030549969011646564
34.902,-0.7000226493221378,1.9985289506487596e-05,-0.001001392959496257,0.0003058076811754238
34.935,-0.7000226525465252,2.0004245819424505e-05,-0.0010013929595249944,0.0003061066143666437
34.968,-0.7000226557709264,2.002320217430939e-05,-0.0010013929595537388,0.0003064055482386828
35.002,-0.7000226590930507,2.004273300818047e-05,-0.001001392959583347,0.0003067135414267365
35.035,-0.7000226623174793,2.0061689448333714e-05,-0.001001392959612088,0.00030701247668258
35.068,-0.7000226655419215,2.0080645930489954e-05,-0.0010013929596408323,0.00030731141262007624
35.102,-0.7000226688640883,2.010017689546261e-05,-0.001001392959670444,0.0003076194079357731
35.135,-0.7000226720885577,2.0119133462870118e-05,-0.001001392959699185,0.00030791834525681523
35.168,-0.7000226753130411,2.013809007232333e-05,-0.0010013929597279224,0.00030821728326015487
35.202,-0.70002267863525,2.0157621168375956e-05,-0.0010013929597575376,0.0003085252807031707
35.235,-0.7000226818597607,2.017657786312615e-05,-0.0010013929597862854,0.0003088242200907548
35.268,-0.700022685084285,2.0195534599800313e-05,-0.0010013929598150367,0.0003091231601587931
35.302,-0.7000226884065361,2.021506582701651e-05,-0.001001392959844652,0.00030943115973040017
35.335,-0.7000226916310879,2.0234022648967964e-05,-0.0010013929598733824,0.000309730101182382
35.368,-0.700022694855653,2.0252979512940266e-05,-0.0010013929599021303,0.00031002904331629025
35.402,-0.7000226981779466,2.0272510871237707e-05,-0.0010013929599317559,0.0003103370450152407
35.435,-0.7000227014025393,2.0291467820440233e-05,-0.0010013929599604933,0.0003106359885323758
35.468,-0.7000227046271456,2.0310424811679798e-05,-0.0010013929599892307,0.00031093493273168287
35.502,-0.7000227079494812,2.0329956301107944e-05,-0.0010013929600188494,0.00031124293655872514
35.535,-0.6995846431677659,2.0630597600521888e-05,-0.0010010687664422785,0.000315814723362257
35.568,-0.6982919166016919,2.1013078137959004e-05,-0.0010011318771898925,0.00032162664031118237
35.602,-0.6960645993038812,2.160893462473601e-05,-0.0010012284039283177,0.0003306728348728588
35.635,-0.6930405656996221,2.232378499217947e-05,-0.0010013571092842288,0.0003415221160381361
35.668,-0.689189857781272,2.3155567084964373e-05,-0.001001521888544736,0.0003541444356068364
35.702,-0.6844062439952999,2.454277920628032e-05,-0.001001696936600769,0.00037518455942914627
35.735,-0.6795364896117987,2.41173388049782e-05,-0.0010017208579202706,-0.0008699253071548651
35.768,-0.6746894160388383,1.6497538158931875e-05,-0.0010018289167329116,-0.002416648398353194
35.802,-0.6696961182059997,8.100896820406302e-07,-0.0010019197285620098,-0.004005540713481849
35.835,-0.6650633115008676,-1.9596496234743354e-05,-0.001000738170159273,-0.0054070593568470654
35.868,-0.6607781735357344,-4.413067387095665e-05,-0.0010006851624481394,-0.006502669625083517
35.902,-0.6566063346169687,-7.346373009551627e-05,-0.001002010542203894,-0.007454322645135669
35.935,-0.6526733576976478,-0.00011271607420422954,-0.0010022149167839972,-0.008349754990561621
35.968,-0.6488503117555326,-0.00014788795859140764,-0.00100252980888944,-0.00888208818339563
36.002,-0.6450859755186583,-0.00018190891079036494,-0.001001184398742902,-0.009222785515079232
36.035,-0.6415983838959775,-0.00021517082877313556,-0.0010018929724081374,-0.010016016173531426
36.068,-0.6384278060829178,-0.0002489456605768957,-0.001001287991818537,-0.011008986498418279
36.102,-0.6352866175186926,-0.000283912050968523,-0.0010016590929543684,-0.011225329859052882
36.133,-0.6323458072084711,-0.00031791863920708563,-0.001001595372647008,-0.012026324040495098
36.168,-0.6296830418114802,-0.0003504129603831526,-0.0010015686219853014,-0.0120353260202115
36.202,-0.6270256379354644,-0.0003817959316701645,-0.0010015340497966235,-0.011476674984080814
36.235,-0.6244775432555029,-0.00041177110182380764,-0.001001501973164176,-0.012163749566355343
36.268,-0.6222194527221087,-0.000439347754025056,-0.0010015219439958936,-0.011921384063282539
36.302,-0.6199648330469055,-0.0004655650426980344,-0.0010014653175683987,-0.011175131680003697
36.335,-0.6180395032519053,-0.00048667084804283444,-0.0010013927995234685,-0.010635002980407052
36.368,-0.616157014309897,-0.0005063628364738979,-0.0010014321221709123,-0.010173293467468904
36.402,-0.6142171742817553,-0.0005257472964758261,-0.0010014221986982368,-0.00969838806675623
36.435,-0.6124204866041418,-0.0005430537178509329,-0.0010014267364961173,-0.009560088144357706
36.468,-0.6106259074299805,-0.0005601193582089074,-0.0010014064799439837,-0.009439517445335846
36.502,-0.6087766269743705,-0.0005774800034198937,-0.0010014019486130725,-0.009316147666626803
36.535,-0.6071692008505172,-0.0005925118369621066,-0.0010014029945858878,-0.009487604893862986
36.568,-0.6055773799626541,-0.000607640314607811,-0.0010014046778892942,-0.00971650512220714
36.602,-0.6039370150674713,-0.0006236022229954873,-0.0010014127068953133,-0.00995800169945284
36.635,-0.6021032459799515,-0.0006423179779409529,-0.0010014135732393757,-0.010300506818677547
36.668,-0.6002254036325404,-0.0006619177163624063,-0.001001396374735803,-0.010681735156047709
36.702,-0.5982903158046324,-0.0006828627240123053,-0.0010014046332886203,-0.011075552663836256
36.735,-0.596199732203626,-0.0007060422573754609,-0.0010014272361281301,-0.011128565819984676
36.768,-0.594077580273688,-0.0007296068907914021,-0.0010014374375985416,-0.011072992670989846
36.802,-0.5918907159981561,-0.000753770436537598,-0.0010014555347922192,-0.011016802040870386
36.835,-0.5895943041070283,-0.0007788620951173123,-0.001001479181908245,-0.010631944717991481
36.868,-0.5872759142059002,-0.0008030250273526424,-0.0010015045898688797,-0.010094583012556106
36.902,-0.5848867934793792,-0.0008266282605647693,-0.0010015359584363281,-0.009542115138269053
36.935,-0.5825373057421486,-0.000848327240483524,-0.0010015658393500645,-0.008744008104503187
36.968,-0.5801868440309323,-0.0008681551051167495,-0.001001612170571313,-0.00794259481787591
37.002,-0.5777647395273756,-0.0008866312188078104,-0.0010016554997829413,-0.007116684185395581
37.035,-0.5752577984560681,-0.0009041866984562826,-0.0010016865744056531,-0.006908723234564663
37.068,-0.5727307989245983,-0.0009216216782657523,-0.0010017454235291025,-0.006811803052430649
37.102,-0.5701270892433928,-0.0009393352452532161,-0.0010018004155403423,-0.006711488935510932
37.135,-0.5675181361213076,-0.0009569129607089435,-0.0010018577257651998,-0.006738385676207685
37.168,-0.5649049471608758,-0.0009745792583969403,-0.0010019029747129378,-0.0067589077656609224
37.202,-0.562213131930006,-0.0009928309529806418,-0.0010019480894442288,-0.006779291247610413
37.235,-0.5595211686484174,-0.001011530777671521,-0.0010020768580687282,-0.007138691083498077
37.268,-0.5568214070196005,-0.001031375187581298,-0.001002086984569276,-0.007556150515196143
37.302,-0.5540420212080255,-0.0010530047115757445,-0.0010021794643361968,-0.00796776670642635
37.335,-0.5513202047022797,-0.0010753072996450871,-0.0010024057035251978,-0.008305569073439045
37.368,-0.5486059629386905,-0.0010974040391165149,-0.001001972784130601,-0.008640017366654512
37.402,-0.5458490884585883,-0.0011208400505635745,-0.0010007538653629654,-0.008994680725404271
37.435,-0.5431371268522229,-0.0011449181712907027,-0.0010008510433203652,-0.00935900757311096
37.468,-0.5403544234186978,-0.0011711527169386321,-0.0010012602063490077,-0.009566400978244124
37.502,-0.5374497299559151,-0.0011986528209171337,-0.0010017345487245179,-0.00922451007194825
37.535,-0.5345628473735569,-0.0012253373133039695,-0.0010015665272021974,-0.009324180386935624
37.568,-0.5316682773478179,-0.0012525762462294405,-0.001001659837638013,-0.0094726602919786
37.603,-0.5286862587098847,-0.0012810861199989607,-0.0010016024812133893,-0.009626560482524086
37.635,-0.5257489190571693,-0.0013084706926838148,-0.0010015547249585394,-0.008756562626209453
37.668,-0.5228017044015152,-0.0013330466265634058,-0.0010015302057493451,-0.007754251516043846
37.702,-0.5197647287980375,-0.0013552798824265936,-0.0010014975040791678,-0.006722308488377469
37.735,-0.5167646994310526,-0.0013758354186320526,-0.0010014793680208564,-0.00702901426965394
37.768,-0.5137587254404026,-0.0013974431401139122,-0.0010014415909190937,-0.007402976388885592
37.802,-0.5106611786929928,-0.0014208799995915921,-0.0010014175042905686,-0.007788658337721725
37.836,-0.5076188423131319,-0.0014442800243584081,-0.0010014045966849489,-0.007613325599134848
37.868,-0.5045747791431703,-0.0014672049555100896,-0.0010014004563692162,-0.0074215875415886284
37.902,-0.5014379285406809,-0.0014902208742165462,-0.0010013980002777055,-0.007225387287753113
37.935,-0.49837246572879734,-0.0015119948953509876,-0.0010013983193861778,-0.006934707614833576
37.968,-0.495306338893985,-0.0015328829793552665,-0.0010014128581938946,-0.006645351930933656
38.001,-0.49214672470714754,-0.0015534837544290666,-0.001001428763922254,-0.006348698313890327
38.035,-0.48903293296347183,-0.001573886062262653,-0.001001443717292709,-0.006794823663444267
38.068,-0.48591686397625616,-0.0015956706732615118,-0.0010014790139801985,-0.00726118519023303
38.102,-0.48270578086586285,-0.0016196449585834532,-0.0010015190543699905,-0.007743062728201819
38.135,-0.47958981189636296,-0.001643933253972512,-0.0010015854695027103,-0.0080734833312269
38.168,-0.4764733047373898,-0.0016695825702366818,-0.0010016309306858165,-0.008399123307197207
38.202,-0.47326177866056424,-0.0016970714233623917,-0.0010016847903063474,-0.008733363867776166
38.235,-0.47012264208589466,-0.0017247901904020786,-0.0010017436187863236,-0.00886938218641851
38.268,-0.46698306985453836,-0.0017528534134111321,-0.0010018119435672435,-0.009003924442871191
38.302,-0.46374867365591954,-0.0017822054696764512,-0.001001868342281928,-0.009141469033761987
38.335,-0.46057215723013495,-0.0018114645002899083,-0.0010019172672122052,-0.009279897256047316
38.368,-0.4573959346627303,-0.0018411585284967026,-0.001001975157522532,-0.00941604593046371
38.403,-0.4541244639927874,-0.0018722026220012284,-0.0010020343320831238,-0.009556357792237223
38.435,-0.45096661087655837,-0.0019017230922341514,-0.0010022117636328022,-0.008694582887108424
38.468,-0.44780984852792965,-0.0019277698654937407,-0.001002175767614695,-0.007853189163997474
38.502,-0.44458564402835055,-0.0019357175642223156,-0.0010021759711961002,-0.0075098840398360655
38.535,-0.44149282224427583,-0.0019531095071975062,-0.0010006208041515724,-0.007773138190054203
38.568,-0.43833819408992164,-0.0019776744884480485,-0.0010012502626261348,-0.008144887882396106
38.602,-0.43503232600052755,-0.00200503978426001,-0.0010017674485315493,-0.00827913546368877
38.635,-0.4318197111167821,-0.0020313829406454053,-0.001001700728043637,-0.00806981043507925
38.668,-0.4286068951294949,-0.00205701943851587,-0.0010016780720461388,-0.007852100411707112
38.702,-0.42529682041358424,-0.0020826971256495035,-0.0010016248359699005,-0.00762692512038732
38.735,-0.42207315058066713,-0.0021075970242727914,-0.0010015494701432065,-0.00782254430958364
38.768,-0.41884900354555604,-0.0021331685650726015,-0.0010015017287242113,-0.008020295357953556
38.802,-0.4155265220810564,-0.0021601756970222627,-0.0010014717935581154,-0.008225523636239797
38.835,-0.41230277630983525,-0.002186661287340644,-0.0010014625802360518,-0.008188049418510788
38.868,-0.4090785156090774,-0.0022130071143424347,-0.0010014370574376215,-0.00815076177661864
38.902,-0.40575600022565134,-0.002240031516470426,-0.0010014171068681646,-0.00811366553213789
38.935,-0.4025162468664164,-0.002266610017144345,-0.0010014014151615257,-0.008343181290700817
38.968,-0.3992758430740787,-0.0022939580759728465,-0.0010014004515860458,-0.00857505068323284
39.002,-0.3959366637355206,-0.002322929103960706,-0.0010014012255248513,-0.008815371286461792
39.035,-0.39269163695262466,-0.0023514871470543893,-0.0010014070785007607,-0.008773122322577754
39.069,-0.38944602669405576,-0.002379902561225478,-0.0010014235200042389,-0.008731504653842889
39.102,-0.38610145458123485,-0.0024090467992911677,-0.0010014485182888062,-0.00869027053620648
39.135,-0.382840611183896,-0.002437631324054885,-0.001001478543700491,-0.008874968355535454
39.168,-0.37957906059372415,-0.0024668430138624353,-0.0010015178998715596,-0.009062009874295583
39.202,-0.37621805064974256,-0.002497591624801562,-0.001001562576911419,-0.009256205839939824
39.235,-0.3729776523171796,-0.002527178652695017,-0.0010016018911780597,-0.008884234613637068
39.268,-0.3697370359686316,-0.0025556051543330796,-0.0010016417565953672,-0.008509435451671288
39.303,-0.36639723225252496,-0.0025836930986546766,-0.001001702837627648,-0.008123442287087201
39.335,-0.3631329764932204,-0.0026102196544206388,-0.0010018118442456335,-0.00806331175926053
39.368,-0.35986896306448307,-0.0026365211336021057,-0.001001868416145104,-0.00800397770337622
39.402,-0.35650663198468574,-0.002663408103424243,-0.0010019255624402514,-0.007941932589773295
39.436,-0.35323749864108034,-0.0026893373633116876,-0.0010019832430395136,-0.007876033381233005
39.468,-0.3499693563617798,-0.0027150582590723805,-0.001002046794207196,-0.007810998990889493
39.502,-0.34660403169196596,-0.002741216906385052,-0.0010021413694182649,-0.007754253223683663
39.535,-0.34335150274583787,-0.002764622140459434,-0.001002021507024893,-0.0077031079284368515
39.568,-0.3401429967138878,-0.002783227363249331,-0.0010013260336573342,-0.007980963474340692
39.602,-0.33684324993133286,-0.0028095885817282814,-0.001001403080166774,-0.008379900904375053
39.635,-0.3336080180041859,-0.0028371332984737318,-0.0010012773282523438,-0.00866285980408598
39.668,-0.3303401690547562,-0.0028652995932130242,-0.001001707813973702,-0.008504684186760593
39.702,-0.32697157687762374,-0.0028936613941850553,-0.0010017016030338596,-0.008303184090716988
39.736,-0.3236796864543656,-0.002920303493110132,-0.0010016629805092714,-0.007788946159266953
39.768,-0.32038648125210517,-0.002945212912514211,-0.0010016023647563578,-0.007259739731750056
39.802,-0.31699306364206187,-0.002969056094830812,-0.001001550138830052,-0.006715060676157554
39.835,-0.31372048968814215,-0.002990027083433149,-0.001001506259718104,-0.005990516158402737
39.868,-0.31044756010880364,-0.0030086225977105983,-0.0010014794726667525,-0.0052657817894255455
39.902,-0.3070749016755072,-0.0030253058312288924,-0.001001449991916134,-0.004520126771100448
39.935,-0.30377904242994214,-0.00304022701346617,-0.0010014249188080894,-0.004563076322515028
39.968,-0.30048189606267917,-0.003055343310849025,-0.0010014099727052375,-0.004617084892420513
40.002,-0.2970842342195084,-0.003071105852965959,-0.0010014022297881245,-0.00467372005136665
40.035,-0.2937798409745911,-0.0030870432846237185,-0.0010013891727672225,-0.004950491522802143
40.068,-0.29047481519695867,-0.0031037985343026616,-0.0010013955549751825,-0.005230264717615179
40.102,-0.28706903274961754,-0.003122034478815661,-0.001001408793315145,-0.00552007032386479
40.135,-0.28377905146370086,-0.0031397967187858,-0.0010014391564982308,-0.00529671870022085
40.168,-0.2804886796030897,-0.003156914252014206,-0.001001466744944876,-0.005071362416039377
40.198,-0.27709799378469846,-0.0031737898662024667,-0.001001502675501708,-0.004840149625125261
40.235,-0.27381165891828263,-0.003189317274733741,-0.0010015458077681158,-0.004537921456864518
40.268,-0.27052471350441604,-0.0032038954826224633,-0.0010015839307183014,-0.004238194691034624
40.301,-0.26713711129023426,-0.003217962055058065,-0.001001624295213742,-0.003932711439106222
40.335,-0.26382693941338625,-0.003231586012071626,-0.001001727311763078,-0.00430986158916153
