time,x,y,z,theta
36.397,-0.700022776353706,2.0732085109006225e-05,-0.0010013929606286706,0.0003175843526155541
36.43,-0.7000227795786269,2.0751043076331397e-05,-0.0010013929606574289,0.00031788331265574047
36.463,-0.7000227828035614,2.0770001085795363e-05,-0.001001392960686187,0.0003181822733796462
36.497,-0.7000227861262355,2.0789533624240753e-05,-0.0010013929607158058,0.0003184902942310918
36.529,-0.7000227893511975,2.08084917189187e-05,-0.0010013929607445606,0.0003187892563379955
36.563,-0.7000227925761732,2.0827449855570034e-05,-0.0010013929607733119,0.00031908821912611166
36.597,-0.7000227958988893,2.084698252510709e-05,-0.0010013929608029236,0.00031939624210508034
36.63,-0.7000227991238924,2.0865940747067175e-05,-0.0010013929608316818,0.0003196952062776281
36.663,-0.7000228023489089,2.0884899010999222e-05,-0.0010013929608604331,0.0003199941711313695
36.697,-0.7000228056716674,2.0904431811738146e-05,-0.0010013929608900587,0.00032030219623953185
36.73,-0.7000228088967115,2.092339016093493e-05,-0.00100139296091881,0.00032060116247704045
36.763,-0.7000228121217692,2.0942348552161597e-05,-0.0010013929609475648,0.00032090012939661944
36.797,-0.70002281544457,2.0961881484031948e-05,-0.001001392960977194,0.000321208156632909
36.83,-0.7000228186696551,2.0980839960515573e-05,-0.0010013929610059452,0.000321507124936142
36.863,-0.7000228218947537,2.0999798478996308e-05,-0.0010013929610347,0.00032180609392094855
36.897,-0.7000228252175968,2.101933154199992e-05,-0.001001392961064336,0.00032211412328539825
36.93,-0.700022828442723,2.1038290145779016e-05,-0.0010013929610930908,0.0003224130936544872
36.963,-0.7000228316678627,2.1057248791537765e-05,-0.0010013929611218456,0.0003227120647048851
36.997,-0.7000228349907481,2.1076781985632202e-05,-0.0010013929611514746,0.0003230200961968505
37.03,-0.7000228382159154,2.1095740716727328e-05,-0.0010013929611802225,0.00032331906863210583
37.063,-0.700022841441096,2.1114699489716154e-05,-0.0010013929612089842,0.00032361804174737093
37.097,-0.7000228447640239,2.1134232815015172e-05,-0.0010013929612386202,0.0003239260753685823
37.13,-0.7000228479892321,2.1153191673288568e-05,-0.0010013929612673646,0.00032422504986792
37.163,-0.7000228512144538,2.117215057361381e-05,-0.0010013929612961298,0.00032452402504966576
37.197,-0.7000228545374239,2.1191684030007655e-05,-0.0010013929613257554,0.00032483206079845676
37.23,-0.7000228577626731,2.121064301562317e-05,-0.0010013929613545205,0.0003251310373643638
37.263,-0.700022860987936,2.1229602043275628e-05,-0.0010013929613832684,0.00032543001461245174
37.297,-0.7000228643109482,2.1249135630786386e-05,-0.0010013929614129044,0.00032573805248916384
37.33,-0.7000228675362384,2.1268094743685198e-05,-0.0010013929614416626,0.00032603703112075137
37.363,-0.7000228707615423,2.1287053898549657e-05,-0.0010013929614704244,0.0003263360104334381
37.397,-0.7000228740845968,2.1306587617251182e-05,-0.00100139296150005,0.00032664405043918973
37.43,-0.7000228773099282,2.1325546857414993e-05,-0.0010013929615288082,0.00032694303113617887
37.463,-0.700022880535273,2.1344506139571306e-05,-0.0010013929615575665,0.0003272420125146755
37.497,-0.7000228838583699,2.136403998944321e-05,-0.0010013929615871955,0.00032755005464915783
37.529,-0.7000228870837422,2.1382999356896965e-05,-0.0010013929616159607,0.00032784903741192903
37.563,-0.7000228903091281,2.1401958766385685e-05,-0.001001392961644726,0.00032814802085685276
37.597,-0.7000228936322672,2.142149274732514e-05,-0.001001392961674355,0.0003284560651185131
37.63,-0.7000228968576806,2.1440452242085775e-05,-0.0010013929617031132,0.0003287550499473285
37.663,-0.7000229000831076,2.1459411778825623e-05,-0.0010013929617318854,0.00032905403545744895
37.697,-0.7000229034062889,2.1478945890935717e-05,-0.001001392961761504,0.0003293620818478521
37.73,-0.7000229066317435,2.1497905513013863e-05,-0.0010013929617902796,0.00032966106874287275
37.763,-0.7000229098572114,2.1516865177020533e-05,-0.0010013929618190275,0.00032996005631843333
37.797,-0.700022913180435,2.1536399420285883e-05,-0.001001392961848667,0.00033026810483734507
37.83,-0.7000229164059306,2.155535916959947e-05,-0.0010013929618774321,0.00033056709379732845
37.863,-0.7000229196314395,2.1574318960923107e-05,-0.0010013929619061973,0.00033086608343908976
37.897,-0.7000229229547055,2.1593853335290845e-05,-0.0010013929619358264,0.00033117413408571166
37.931,-0.7000229261802422,2.161281321190837e-05,-0.001001392961964595,0.0003314731251116968
37.963,-0.7000229294057921,2.1631773130532203e-05,-0.0010013929619933533,0.0003317721168194035
37.997,-0.6995581403663615,2.1950386437176903e-05,-0.001001071421247491,0.000336616717846438
38.03,-0.6982393585952058,2.2371569581395744e-05,-0.001001131855913301,0.0003430151263671121
38.063,-0.6960645288428818,2.3003657600312105e-05,-0.0010012241564188902,0.00035260988817882247
38.097,-0.6929352913258294,2.3825536396156435e-05,-0.0010013589407073045,0.00036508158110373594
38.13,-0.6890585135600302,2.4784874179814757e-05,-0.001001520861590225,0.0003796368374391191
38.163,-0.6844002705318952,2.629071691248366e-05,-0.001001689313909801,0.0004024741110042955
38.197,-0.679530596988983,2.7342362423950216e-05,-0.0010017153930077065,-0.0004532960494196695
38.23,-0.6748993814562331,2.192542492147909e-05,-0.0010018194960712094,-0.002040943465331456
38.263,-0.6702686771578417,9.158168751031448e-06,-0.001001904427149241,-0.003624488121242327
38.297,-0.665736842895798,-9.438714060626634e-06,-0.0010007553054783604,-0.005106533687642326
38.33,-0.6617148647487001,-3.166270752062103e-05,-0.0010014327912482301,-0.006251642054527469
38.364,-0.6578335809440724,-5.830644067328407e-05,-0.0010021534139832838,-0.0074797133992000695
38.397,-0.6538949862889315,-9.086085426857924e-05,-0.0010014282369459025,-0.008681657939124754
38.43,-0.6501717484299728,-0.00013305515043604503,-0.0010026169937397064,-0.009368324665330073
38.463,-0.6465858411632542,-0.0001673967966540362,-0.001001024534745324,-0.009888953459108408
38.497,-0.6430832483998421,-0.0002032858851958395,-0.001002176983162649,-0.010429329677313366
38.53,-0.6400504377959563,-0.0002357339334750148,-0.001000999395494296,-0.010871433552590378
38.563,-0.6371113602546039,-0.0002682463234212029,-0.0010016549801124298,-0.011189906469989928
38.597,-0.6343624029138156,-0.0002994704441663459,-0.0010013168684585676,-0.011224284006416611
38.63,-0.6318105658528874,-0.0003277468208942356,-0.0010016094366497655,-0.010855700110465343
38.663,-0.629259026513654,-0.0003550749962138152,-0.0010015654679643021,-0.010487401720501853
38.697,-0.6266864996942796,-0.0003814413105014931,-0.001001514864450808,-0.009880900958944058
38.73,-0.6241900234836989,-0.00040551936622760013,-0.0010014995208391768,-0.00928738228210603
38.763,-0.6216931625350727,-0.00042811680423212803,-0.0010014764730633362,-0.00869490680837533
38.797,-0.6190116084416261,-0.00045120264357726396,-0.0010014657829020487,-0.008546125398769411
38.83,-0.6164019097442405,-0.0004733949113812076,-0.0010014354315271146,-0.008448118983657087
38.863,-0.6137917705422051,-0.0004953367011353753,-0.0010014192069629675,-0.008351354640937541
38.897,-0.6109467561616992,-0.000519060713514806,-0.0010014060262571456,-0.008278514061399029
38.93,-0.6081701016278013,-0.0005419006808526422,-0.0010013979852977958,-0.008156732732046073
38.963,-0.6053929632296586,-0.000564410009868366,-0.0010013943477617214,-0.008036356015795077
38.997,-0.6024694325418701,-0.0005874222469676013,-0.0010013866892406124,-0.00761960015815956
39.03,-0.5996297960843167,-0.0006085628380900596,-0.0010014029417054586,-0.00719874851424
39.063,-0.5967896512519291,-0.0006285147299918299,-0.0010014160479442577,-0.00677938817576366
39.097,-0.5938036599929317,-0.0006496824330767142,-0.0010014297258722632,-0.007522578594800778
39.127,-0.5909010907710094,-0.0006724333444276176,-0.0010014617986120744,-0.008289591001409887
39.162,-0.5879980056785498,-0.0006974215213060598,-0.0010014921647590706,-0.009058051850295073
39.197,-0.584983335481166,-0.0007248041520638967,-0.0010015297545396054,-0.009149107758526768
39.23,-0.5820559916066208,-0.0007516924139809838,-0.0010015715698735057,-0.009225884417110428
39.263,-0.5791281151732347,-0.0007788169015497148,-0.001001620907194644,-0.009303871835306862
39.297,-0.5761109795933107,-0.000807015391376416,-0.0010016791975648275,-0.009385295647518417
39.33,-0.5731084469344236,-0.0008352146346417174,-0.001001737019474553,-0.00933025025379932
39.363,-0.5701024498014073,-0.0008632372984739894,-0.0010018007138705466,-0.009248507065262198
39.397,-0.5669968476970396,-0.000892256460681891,-0.001001866274107463,-0.00945061267147427
39.43,-0.563983037446488,-0.0009210240609519907,-0.0010019166201911782,-0.009647035230095018
39.463,-0.5609699102894039,-0.0009503728758757538,-0.0010019670556733404,-0.00984242300412468
39.497,-0.5578217411752872,-0.0009814234980198948,-0.001002069607605658,-0.009812963933254894
39.53,-0.5547636922055824,-0.0010114616400575345,-0.001002076784500764,-0.009755522273596001
39.563,-0.5517093953126726,-0.0010411519494312343,-0.001002206855953175,-0.009703028762882659
39.597,-0.5485811163778553,-0.0010640530741084899,-0.0010021188200446292,-0.009864053215077006
39.63,-0.5455850984145092,-0.0010926025632796805,-0.0010010015792021806,-0.010295987588003123
39.663,-0.5425627221313073,-0.0011238626955488227,-0.001001502497568186,-0.01076192921170525
39.697,-0.5393923769806039,-0.0011587011615013954,-0.00100134536001769,-0.011135644875400901
39.73,-0.5362839068206661,-0.001193315986279026,-0.001001682173730499,-0.011112596801018233
39.763,-0.5331756475792486,-0.0012278228842488288,-0.0010016964178369385,-0.011084542077650385
39.797,-0.5299643372945467,-0.0012632228376540566,-0.0010016582294428145,-0.01093810463110227
39.83,-0.5268471741966267,-0.0012971299274907588,-0.0010015947067534593,-0.010796044321248779
39.863,-0.5237296182722627,-0.0013305968082930337,-0.0010015474053191135,-0.010654666262678933
39.897,-0.5204698891171949,-0.0013650940234485145,-0.0010015154132154078,-0.010485330252943795
39.93,-0.5173045716210092,-0.0013980521303022437,-0.0010014773243774769,-0.010317860211865542
39.963,-0.51413873765968,-0.0014304879628226465,-0.001001450281169245,-0.010151424546448967
39.997,-0.5108750911799287,-0.001462262703260472,-0.0010014274261350257,-0.00914993097375075
40.03,-0.507706406196498,-0.0014899391122414475,-0.0010014093285747594,-0.008165884687772254
40.063,-0.5045371682910516,-0.0015145036356066415,-0.0010013995526539747,-0.007182987319638962
40.097,-0.5012271773607864,-0.0015384551926814253,-0.0010013963778739733,-0.007400572893288697
40.13,-0.49801131630476064,-0.0015625887368910054,-0.001001409188310473,-0.007645830639453994
40.163,-0.4947949053793294,-0.001587518160933223,-0.0010014183721604175,-0.007892103694811085
40.197,-0.4914806726904022,-0.0016138586144021408,-0.0010014327177822434,-0.008003179128071547
40.23,-0.48826334029789076,-0.001639756534274276,-0.0010014588279763648,-0.008112156166066687
40.263,-0.48504542717719656,-0.0016660143539057955,-0.0010014915846204044,-0.008222482503557052
40.297,-0.481739385559668,-0.0016929938909582896,-0.0010015234994757219,-0.008038043399785172
40.33,-0.4785298962776706,-0.0017186355021969945,-0.0010015603271955435,-0.00786035027814279
40.363,-0.4753196112900535,-0.001743743390177025,-0.0010016077862409177,-0.007682638114836628
40.397,-0.4719903626627636,-0.0017694878113800184,-0.001001695282435322,-0.007777484418166336
40.43,-0.4687584532848562,-0.0017947841470734222,-0.0010017696786910474,-0.007871630970229493
40.463,-0.46552653110108877,-0.0018203924002485332,-0.001001834160885423,-0.007965133498588349
40.497,-0.4621906622592636,-0.0018473495365940846,-0.0010019059278264866,-0.008340346427118159
40.53,-0.4589534241848906,-0.001874942696235872,-0.0010019535792617287,-0.008702285685629748
40.563,-0.4557170140101698,-0.0019036680359164695,-0.0010020057759749963,-0.009062538687569155
40.597,-0.452379438283183,-0.001934446073557745,-0.0010020692883398324,-0.009342823256938223
40.63,-0.44914215376663824,-0.0019649079621797566,-0.0010021682862839144,-0.009626600311408516
40.663,-0.4459171881417219,-0.001994760734350788,-0.0010021589940380528,-0.010016990030205715
40.697,-0.4426459058136213,-0.0020279003653529528,-0.0010012160782701118,-0.010518366916096549
40.73,-0.4394669487408775,-0.0020616224297872,-0.0010014705384439986,-0.011027611004347286
40.763,-0.43626158878755666,-0.0020974287860897056,-0.0010014923332369863,-0.011207696023126492
40.797,-0.4329102860257316,-0.002134666684963625,-0.0010017322557870287,-0.010909004981481837
40.83,-0.4296518950300842,-0.0021696922846041115,-0.0010016897797184288,-0.010530449974248582
40.863,-0.42639366671440404,-0.002203479621441508,-0.0010016514286978542,-0.010151264641480341
40.897,-0.4230364377454654,-0.0022370009133450483,-0.0010015902768019391,-0.009760923661073076
40.93,-0.4197941629357802,-0.0022679663012484504,-0.0010015364750143169,-0.009263894453524
40.963,-0.416551517720233,-0.002297319269508812,-0.0010015039503955096,-0.008767060685131198
40.997,-0.4132038671441394,-0.002326027970718101,-0.0010014725934051234,-0.008323057695259426
41.03,-0.4099540988451902,-0.0023524798982190232,-0.0010014462022066122,-0.007893482965661051
41.063,-0.4067037938757321,-0.0023775416941054697,-0.0010014241242539655,-0.007465069586732034
41.097,-0.4033122206120994,-0.0024031512625614653,-0.0010014077130752683,-0.007759736723474324
41.125,-0.4000184215401653,-0.0024291408357942105,-0.001001406649775806,-0.008060342935878054
41.163,-0.3967240723204317,-0.0024561228809308285,-0.0010014065143923376,-0.008361305380777173
41.197,-0.39336322111854904,-0.002483220979013186,-0.0010014081537880574,-0.007586509842057313
41.23,-0.39010200743668083,-0.0025068949984005016,-0.0010014178452762389,-0.006812940852070159
41.263,-0.38684019337072273,-0.002528054719419228,-0.0010014375290582182,-0.006040801019086254
41.297,-0.38346199996911934,-0.0025483765282385213,-0.0010014682602191502,-0.005993006455855909
41.33,-0.380182014621102,-0.0025680026753568436,-0.0010015021941722178,-0.005954615091936082
41.363,-0.3769014172050885,-0.0025875143168700575,-0.0010015457308736979,-0.005917574069068074
41.397,-0.37350861409040376,-0.002607778154082315,-0.0010016206504584284,-0.006184898377887832
41.43,-0.3702148911464405,-0.002628573758316754,-0.0010016753425120782,-0.0064427816874426695
41.463,-0.36692062239023426,-0.002650218896352192,-0.0010017412137268665,-0.006699645882213984
41.497,-0.3635170020992346,-0.0026733377389406574,-0.0010018060120718965,-0.006816526206715151
41.53,-0.36021370467388425,-0.002696054423823411,-0.0010018645728530375,-0.0069294399351092105
41.563,-0.3569109586929363,-0.002719138324957181,-0.0010019204910254216,-0.007041652865442767
41.597,-0.3535397138535797,-0.0027422976624136,-0.0010018952478123982,-0.006431218717199402
41.63,-0.3502701990518625,-0.0027627620019429204,-0.0010019775652542577,-0.005803810106457261
41.663,-0.34700184667673517,-0.002781164075605298,-0.0010020858909846955,-0.005183351534383001
41.697,-0.3436341269631948,-0.0027981065994521414,-0.0010022664641422124,-0.00506618260981872
41.73,-0.3404002207303238,-0.002814489649932723,-0.0010017137746390035,-0.00531421303348147
41.763,-0.3371966697295702,-0.0028312163479360785,-0.0010010195938087857,-0.0055674633687686085
41.797,-0.33382294686223907,-0.002850114230284012,-0.001001618229273856,-0.005853577275669939
41.83,-0.3305125518708616,-0.0028699976147462166,-0.0010017500468598346,-0.006064756164837658
41.863,-0.32720402307248514,-0.0028904490646623395,-0.0010016855347646687,-0.006269532211688026
41.897,-0.32380213167356015,-0.0029116496170798647,-0.0010016651207848913,-0.006129638867572436
41.93,-0.3205002059702254,-0.0029316981889858144,-0.0010016096547343957,-0.005991338925809311
41.963,-0.31719788835199186,-0.002951291463291458,-0.0010015561525558853,-0.005853821604050596
41.997,-0.31379413259250616,-0.0029713430604706038,-0.0010015056960227843,-0.0059303860207246244
42.03,-0.3104899689595646,-0.002991073191923322,-0.00100147416134665,-0.006006586003067071
42.063,-0.3071852602226715,-0.0030110568521207423,-0.001001443779269133,-0.006084043204998014
42.097,-0.3037866611156493,-0.003031433157719547,-0.0010014303192038727,-0.005868313635214287
42.13,-0.30048752604722295,-0.00305049721138676,-0.0010014111355344732,-0.005659127937534722
42.163,-0.29718783868022197,-0.003068875608694992,-0.0010014009176737768,-0.00545132978105408
42.197,-0.29377922586435395,-0.003087577178424809,-0.00100139954979208,-0.005547472354591932
42.23,-0.2904702132582521,-0.003106064909749994,-0.0010014043573673276,-0.005643327830760286
42.259,-0.2871606230898387,-0.003124876008970686,-0.0010014162882881414,-0.005740763260907132
42.297,-0.2837501286673039,-0.0031446014182757286,-0.0010014384936806904,-0.0058428229139608975
42.33,-0.28045193388987283,-0.003163912869787823,-0.0010014662209296803,-0.00586626727883849
42.363,-0.2771532323799481,-0.0031833039999322197,-0.001001499451705988,-0.005890696472529365
42.397,-0.27377698616539226,-0.003202429457452827,-0.0010015449328278428,-0.005331318763348802
42.43,-0.27050004139050476,-0.003219173322183352,-0.001001591103912871,-0.004781991885210464
42.463,-0.26722248148402766,-0.0032341571999573103,-0.001001643971217759,-0.004233268132111461
42.497,-0.26382483333635703,-0.0032484958127554963,-0.001001710489798701,-0.004166160365989221
42.53,-0.2605263933177614,-0.0032622159055475455,-0.0010017874296492923,-0.004105431601659681
42.563,-0.25722812648288257,-0.0032757370787752133,-0.001001847973981184,-0.004044695221427488
42.597,-0.2538262618133716,-0.003289817504827547,-0.0010019205704525531,-0.004251920330284639
42.63,-0.25052510256487154,-0.00330400062588564,-0.001001986838738797,-0.0044666831801076405
42.664,-0.247224895680754,-0.003319056537197281,-0.0010020475718904263,-0.004689063731225576
42.697,-0.24383779786064677,-0.003335121201546053,-0.0010021672279055538,-0.004552160100153539
42.73,-0.24055248549091568,-0.0033497899503334722,-0.0010021205971074455,-0.0045047013908669055
42.762,-0.23730724904819867,-0.0033628783530620723,-0.0010017259763134452,-0.004694627364831836
42.797,-0.2339910125907409,-0.0033779264876916807,-0.0010009026842257816,-0.004922470526178388
42.83,-0.23072003958958362,-0.003394228044005079,-0.0010017142437403204,-0.005143480832096841
42.863,-0.2274295998239154,-0.003411183197247364,-0.001001752959975448,-0.005120071516957494
42.897,-0.2240154489505046,-0.0034286135205111026,-0.0010016672165550251,-0.005075321594617626
42.93,-0.22070114863797222,-0.003445373500868713,-0.0010016754911021733,-0.005025126473670936
42.963,-0.2173869935289249,-0.003461960945057165,-0.00100161749236935,-0.004973445470259564
42.997,-0.21398158980342213,-0.003478815262617938,-0.0010015578823153425,-0.004913170255927568
43.03,-0.21067594164593945,-0.003494977207129061,-0.001001517718334035,-0.004855478212180421
43.063,-0.2073697945692596,-0.0035109500274466366,-0.0010014849170901612,-0.004798945253176297
43.097,-0.20395955694896173,-0.0035274355356972637,-0.0010014461258393212,-0.00487472350987378
43.13,-0.2006490205647573,-0.003543695950248467,-0.001001427286585116,-0.004950441616621455
43.163,-0.19733784795178028,-0.003560195050686908,-0.0010014135630143153,-0.005027228061977317
43.197,-0.19394051776844676,-0.0035771131768454643,-0.0010014048282969076,-0.00491067748565473
43.23,-0.19064265543239778,-0.0035931477191867766,-0.00100139837161237,-0.004798352902296067
43.263,-0.18734422210002705,-0.0036088168734246502,-0.001001401281356739,-0.004687621435324714
43.297,-0.18393820532406158,-0.0036246199512995517,-0.0010014122690740895,-0.004577256461173349
43.33,-0.18063171788139396,-0.0036396059775340704,-0.0010014323746464042,-0.00447184243676241
