time,x,y,z,theta
37.196,-1.4549728990216268e-05,1.58191498411676e-05,-0.0010017012556258961,0.00024217030584875547
37.229,-1.4552090455859958e-05,1.583324971684241e-05,-0.0010017012556763384,0.0002423931457441279
37.262,-1.4554451934315014e-05,1.584734964858845e-05,-0.0010017012557267703,0.00024261598653400147
37.296,-1.455688498613059e-05,1.5861876909690992e-05,-0.0010017012557787391,0.00024284558101144102
37.329,-1.455924649061864e-05,1.5875976955419042e-05,-0.0010017012558291745,0.00024306842361955327
37.362,-1.4561608007934972e-05,1.5890077057317523e-05,-0.0010017012558796272,0.00024329126712367122
37.396,-1.4564041099783629e-05,1.590460449368974e-05,-0.001001701255931589,0.00024352086439701441
37.429,-1.4566402643117777e-05,1.5918704709471607e-05,-0.0010017012559820314,0.000243743709717879
37.462,-1.4568764199275868e-05,1.5932804981401113e-05,-0.0010017012560324667,0.00024396655593440268
37.496,-1.4571197331159774e-05,1.5947332593063213e-05,-0.0010017012560844286,0.0002441961560039607
37.529,-1.4573558913351294e-05,1.5961432978979962e-05,-0.0010017012561348917,0.00024441900403880386
37.561,-1.4575920508354615e-05,1.597553342096179e-05,-0.0010017012561853132,0.0002446418529680603
37.596,-1.4578353680258158e-05,1.5990061207807527e-05,-0.0010017012562372925,0.00024487145583222463
37.629,-1.458071530130705e-05,1.600416176384209e-05,-0.0010017012562877244,0.0002450943065807949
37.662,-1.458307693517685e-05,1.6018262376006807e-05,-0.0010017012563381701,0.00024531715822476304
37.696,-1.4585510147110004e-05,1.603279033809553e-05,-0.0010017012563901563,0.0002455467638844345
37.729,-1.4587871806998488e-05,1.6046891064147326e-05,-0.0010017012564405951,0.00024576961734520817
37.762,-1.4590233479717853e-05,1.6060991846385932e-05,-0.0010017012564910409,0.0002459924717022391
37.796,-1.4592666731691895e-05,1.6075519983789175e-05,-0.0010017012565430097,0.0002462220801585057
37.829,-1.459502843043992e-05,1.6089620879969512e-05,-0.0010017012565934416,0.00024644493633317117
37.862,-1.4597390142003213e-05,1.6103721832234466e-05,-0.0010017012566439117,0.00024666779340254825
37.896,-1.4599823433998627e-05,1.611825014483343e-05,-0.0010017012566958597,0.0002468974046536111
37.929,-1.4602185171608793e-05,1.613235121115812e-05,-0.0010017012567463124,0.0002471202635424119
37.962,-1.4604546922042036e-05,1.6146452333617524e-05,-0.0010017012567967581,0.00024734312332668146
37.996,-1.4606980254073133e-05,1.6160980821482952e-05,-0.0010017012568487513,0.00024757273737361594
38.029,-1.460934203052983e-05,1.6175082057856858e-05,-0.0010017012568992005,0.00024779559897511244
38.062,-1.4611703819816108e-05,1.6189183350400882e-05,-0.0010017012569496254,0.0002480184614726149
38.096,-1.4614137191887658e-05,1.620371201356286e-05,-0.001001701257001622,0.00024824807831587794
38.126,-1.4616499007198691e-05,1.621781342002587e-05,-0.0010017012570520678,0.0002484709426306771
38.162,-1.4618860835328897e-05,1.623191488260645e-05,-0.00100170125710251,0.0002486938078406871
38.196,-1.4621294247429192e-05,1.6246443720997875e-05,-0.001001701257154479,0.0002489234274792663
38.229,-1.4623656101608873e-05,1.626054529764389e-05,-0.001001701257204949,0.00024914629450879187
38.262,-1.4626017968607293e-05,1.627464693039838e-05,-0.0010017012572553913,0.0002493691624333922
38.296,-1.4628451420734163e-05,1.6289175944000284e-05,-0.0010017012573073775,0.00024959878486700143
38.329,-1.4630813313757773e-05,1.6303277690677083e-05,-0.0010017012573578267,0.0002498216546089512
38.362,-1.4633175219616167e-05,1.6317379493546603e-05,-0.0010017012574082898,0.00025004452524725156
38.396,-1.4635608711797369e-05,1.633190868253568e-05,-0.0010017012574602448,0.0002502741504785697
38.429,-1.463797064368312e-05,1.634601059934581e-05,-0.0010017012575107148,0.0002504970229344993
38.462,-1.4640332588383275e-05,1.636011257222646e-05,-0.0010017012575611814,0.00025071989628492995
38.496,-1.4642766120585848e-05,1.63746419363835e-05,-0.0010017012576131606,0.00025094952431063954
38.529,-1.4645128091338513e-05,1.6388744023348455e-05,-0.001001701257663603,0.00025117239948087625
38.562,-1.464749007491729e-05,1.6402846166468406e-05,-0.0010017012577140695,0.0002513952755468942
38.596,0.00046297514875509897,1.66122845698223e-05,-0.001001337545629151,0.0002545820713934446
38.629,0.0018173882918599861,1.6925667019248254e-05,-0.0010013931501949846,0.0002593435355099436
38.662,0.004050976900975831,1.7390742188282984e-05,-0.0010014882968795574,0.000266404076201319
38.696,0.007227755025795207,1.807825937187702e-05,-0.0010018269158505594,0.00027381490366792775
38.729,0.010530224529409247,1.894743845227348e-05,-0.0010017898167661403,0.0002707417840543692
38.762,0.013833301797752873,1.982233908060167e-05,-0.001001826757269498,0.0002658526361370651
38.796,0.01723715748133378,2.0701738942297848e-05,-0.0010018740145737448,0.0002591046834817594
38.829,0.020541551247718243,2.152839434117996e-05,-0.0010019317878731532,0.00025108875467653926
38.862,0.02384655054834451,2.2324102198849726e-05,-0.0010020032623498376,0.0002419087437438762
38.896,0.027252153627611273,2.310639474156065e-05,-0.0010020859598224852,0.00023189671930981014
38.929,0.030557428606988603,2.3827363911232648e-05,-0.0010021491904577337,0.00022381589855519307
38.962,0.033862191147909004,2.4521580431180578e-05,-0.0010022081597429247,0.00021784688626724582
38.996,0.03726632919737004,2.521735657296564e-05,-0.0010022697115855024,0.0002145115394428995
39.029,0.04056932012898041,2.5882725143370345e-05,-0.0010023347035292736,0.0002152382352418334
39.062,0.04387071291667097,2.6531068359483774e-05,-0.0010024217826983713,0.00022311199455153746
39.096,0.04726721632207099,2.7151461351934155e-05,-0.001002587180565874,0.00023251752366112505
39.127,0.0505373667801586,2.725943521612906e-05,-0.0010023012793542174,0.0002341559300951597
39.162,0.053781340871382956,2.867870000407558e-05,-0.0010013459092049933,0.0002556520924946567
39.196,0.057176447236013,2.9531163974269207e-05,-0.001002346942749737,0.0002685784734579308
39.229,0.06047134067132922,3.0376904517109872e-05,-0.0010021354362561297,0.00028140035159240944
39.262,0.06376649065506257,3.128788315946403e-05,-0.0010020346180217542,0.0002951968981999212
39.296,0.06716125344573665,3.2300937100487316e-05,-0.001002000644175837,0.00031055280365195143
39.329,0.0704560524495115,3.334045709137466e-05,-0.0010019451401941694,0.0003263103606505012
39.362,0.07375122334681229,3.4399227227092306e-05,-0.0010018808037034373,0.00034235831245898107
39.396,0.07714673190921278,3.553688131819669e-05,-0.0010018270385949817,0.0003591569964756087
39.429,0.08044291866441086,3.672306329758761e-05,-0.0010017883976148716,0.00037434423788279856
39.462,0.0837396744894991,3.796037936315827e-05,-0.0010017568099298484,0.0003881287163175748
39.496,0.08713694581086477,3.928328792913974e-05,-0.001001732685897816,0.00040068829921864125
39.529,0.09043489828800626,4.06074680204421e-05,-0.0010017125657658318,0.00041117701158012145
39.562,0.09373344734699578,4.196499405245043e-05,-0.0010017014321010397,0.0004199351639371444
39.596,0.0971325860050873,4.339152653988481e-05,-0.0010016947182374739,0.0004270583633582821
39.629,0.10043237187529572,4.479810448733473e-05,-0.0010016951004517861,0.0004320145826697998
39.662,0.10373278160811235,4.621934924547698e-05,-0.001001704573998171,0.0004349590198525611
39.696,0.10713386565813694,4.7691993755383695e-05,-0.0010017229190629195,0.0004359034353575909
39.729,0.11043556727685856,4.9120484117222e-05,-0.0010017475524102329,0.0004348496899923772
39.762,0.11373791541121991,5.054205157265608e-05,-0.0010017812820377753,0.000431910999445484
39.796,0.11714101838533189,5.199237831113751e-05,-0.0010018234365010738,0.0004269991023966422
39.829,0.1204446973707213,5.337907907886193e-05,-0.0010018682230632028,0.0004205524635423522
39.862,0.12374902012866242,5.473982835661083e-05,-0.001001924585409212,0.00041263403009134515
39.896,0.12715411249495903,5.610979458925521e-05,-0.0010019967468269317,0.0004032223564349994
39.929,0.13045953286798576,5.740384019580054e-05,-0.0010020774307992752,0.0003933693768001528
39.962,0.1337648508694444,5.865863816689509e-05,-0.0010021423981986244,0.00038501581017852404
39.996,0.1371698191386396,5.9922334698591494e-05,-0.0010022032490747158,0.0003785583754703053
40.029,0.14047391885262867,6.112872525237798e-05,-0.0010022627113477484,0.0003749447511839964
40.062,0.14377704372189112,6.232401121694464e-05,-0.0010023266708525484,0.00037503391338461825
40.096,0.1471786922213177,6.351874210370269e-05,-0.0010024121453740958,0.00038337101712939407
40.129,0.15047612609524935,6.468580069712954e-05,-0.0010025657042344177,0.00040105282569969584
40.162,0.15375125960224886,6.521369594404295e-05,-0.0010024418922873514,0.00040905448275448933
40.196,0.15709183008954175,6.736626585687354e-05,-0.001001328775261781,0.0004416610611630819
40.229,0.16038324137971505,6.880741480662426e-05,-0.0010023618527630514,0.00046074290753702414
40.262,0.16367859334230617,7.029692083418609e-05,-0.0010021523177144373,0.00046843739446771304
40.296,0.167073732525852,7.186801091289607e-05,-0.0010020455428163648,0.00048100303336851095
40.329,0.1703686566494632,7.344710705705191e-05,-0.0010020033050885772,0.0004965879226847701
40.362,0.17366341306879607,7.508079207678247e-05,-0.00100194961039261,0.0005136959866306104
40.396,0.1770583782539703,7.682427184148938e-05,-0.0010018832785601735,0.0005313517479514846
40.429,0.18035396753038754,7.857690167477703e-05,-0.0010018320224235676,0.0005477903426603374
40.462,0.18365009014793793,8.038544622538131e-05,-0.0010017921915637766,0.000563138052341198
40.496,0.18704668788112525,8.230240066045158e-05,-0.0010017588599115328,0.000577500653270644
40.529,0.19034398015945597,8.421014607032895e-05,-0.001001734743924721,0.0005898499453345825
40.562,0.19364186420080562,8.61583080019552e-05,-0.0010017145786938887,0.0006005210292137483
40.596,0.1970403073854571,8.820101537376303e-05,-0.0010017021612901099,0.0006097074401103035
40.629,0.200339411001293,9.021153440725817e-05,-0.0010016945928133583,0.0006167796393237917
40.662,0.20363912528599146,9.22442329220321e-05,-0.0010016944941260916,0.000621929956015472
40.696,0.20703948235414074,9.435471056883442e-05,-0.001001703395348573,0.0006251308259711272
40.729,0.2103404704159233,9.641209883227775e-05,-0.001001720754428937,0.0006262007258210297
40.762,0.2136420976022917,9.846928528814006e-05,-0.0010017442704396626,0.000625324956911039
40.796,0.21704444970234935,0.00010058224203648678,-0.0010017780462975648,0.0006224379188641264
40.829,0.22034739516598092,0.00010261988861311133,-0.0010018186810490382,0.0006177954240602639
40.862,0.22365099885301257,0.00010463746350593241,-0.0010018625241354287,0.0006114785703184825
40.896,0.22705538708117878,0.000106689585377634,-0.0010019193540426602,0.0006034085262247647
40.929,0.23036027113250138,0.00010865081617946509,-0.0010019879686753927,0.0005943235195773563
40.962,0.23366565771260533,0.00011057759207854428,-0.0010020684901113318,0.0005843831021224502
40.996,0.23707117199985206,0.00011252071139972758,-0.001002137391726849,0.0005755201548184377
41.029,0.24037605257454506,0.00011437711987630072,-0.0010021965297133742,0.0005689621146200516
41.062,0.24368024436704347,0.00011621246523122299,-0.0010022557870255216,0.0005649430967765772
41.096,0.2470835777529441,0.00011809038237078783,-0.0010023209327431996,0.0005644964680463648
41.125,0.2503853777097002,0.00011988129600918186,-0.001002400489577556,0.0005712390681115896
41.162,0.25368363168826036,0.00012167203674988423,-0.0010025429597824674,0.0005952594426482655
41.196,0.25706187565773614,0.0001228338093115791,-0.001002516021261196,0.0006128676870072928
41.229,0.26030357494282386,0.00012567132184509593,-0.0010013366318134057,0.0006558544732544061
41.262,0.2635879830582374,0.0001279276654588997,-0.001002224880887713,0.0006900125559355835
41.296,0.26698436928303665,0.00013020674039085524,-0.0010021244558433492,0.0007013434420564205
41.329,0.27027991644480537,0.00013249690268542252,-0.0010020577207936095,0.0007115812513671538
41.362,0.27357487767235755,0.00013483428079760142,-0.001002008362018459,0.0007267318419042662
41.396,0.27696946607229184,0.00013729901517746542,-0.001001955420514726,0.0007441232555144894
41.429,0.2802645395145761,0.00013974868199026017,-0.0010018901094526328,0.0007611883785240512
41.462,0.28356007279987855,0.00014225789443586323,-0.001001837439859505,0.0007776280149676396
41.496,0.2869560232336013,0.00014490197497567557,-0.0010017953288028042,0.00079346978298018
41.529,0.29025266563255014,0.00014752085434598856,-0.001001762630467539,0.0008074724723751127
41.562,0.293549891704517,0.0001501867111547881,-0.0010017373962224532,0.0008199337187351374
41.596,0.2969476524777049,0.00015297633520197653,-0.001001716255958983,0.0008310317869652698
41.629,0.3002460826932415,0.00015571898579389929,-0.0010017031334055015,0.0008400577069210782
41.662,0.3035451179954894,0.00015848954632456395,-0.0010016952051377336,0.0008472899287237044
41.696,0.3069447616075718,0.0001613678928410513,-0.0010016943459605528,0.0008527483178027312
41.729,0.3102450470765835,0.0001641780689031724,-0.0010017021297407357,0.0008560131958575744
41.762,0.31354596351308184,0.00016699774920551187,-0.0010017188405438728,0.0008572702837015282
41.796,0.31694757543249386,0.00016990372642129733,-0.001001742140489037,0.0008565297717417697
41.829,0.32024979484477767,0.00017271847799841465,-0.0010017739870832737,0.0008538812824788697
41.862,0.3235526660231257,0.00017552109555928186,-0.0010018138097484253,0.0008494215756051813
41.896,0.32695631230110694,0.00017838842749615976,-0.0010018586648569555,0.000843053184338787
41.929,0.33026050869134005,0.000181146241052227,-0.0010019126330739307,0.0008353404873660416
41.962,0.33356532503310743,0.00018387438547115342,-0.0010019796256107195,0.00082636506854736
41.996,0.3369708362402494,0.00018664992676634573,-0.0010020619591063241,0.000816141657672671
42.029,0.34027622008540637,0.00018930281383441996,-0.0010021306789582338,0.000807332831800005
42.062,0.34358116357664037,0.00019192533894944578,-0.0010021899402998316,0.0008005132557494152
42.096,0.3469855607981719,0.00019460427090287746,-0.001002250894487331,0.0007960738642724977
42.129,0.35028890374973415,0.00019719056711466878,-0.0010023133772063403,0.0007951842745193491
42.162,0.3535909096053423,0.00019974968340753,-0.0010023896797314545,0.0008006611592395958
42.196,0.35698972536939605,0.0002023666177996037,-0.0010025261972991042,0.000827737538859394
42.229,0.36027223861459123,0.00020425085498385284,-0.0010025841434776715,0.0008562960328657906
42.259,0.3635149486518872,0.0002078109865721447,-0.001001364281524201,0.0009102305134155664
42.296,0.36689411503738356,0.0002110593611402383,-0.0010021423287935385,0.0009593977978070435
42.329,0.3701911820073321,0.00021414942952623556,-0.001002076854918675,0.0009689681870209819
42.362,0.37348704596389787,0.00021732032869759552,-0.001002062775118065,0.0009784728314890805
42.396,0.3768819106827765,0.0002206335855802932,-0.0010020122015078868,0.0009934838905796342
42.429,0.38017664953894414,0.00022390374661463284,-0.0010019630251951947,0.0010102138657528102
42.462,0.38347167628413353,0.0002272298204299906,-0.0010018969916849411,0.0010272866044826329
42.496,0.38686702331072664,0.00023071919518913937,-0.0010018414356418627,0.00104427148581088
42.529,0.39016303783389134,0.0002341634559391184,-0.001001799505943219,0.0010597292987600236
42.561,0.3934596142855022,0.00023766001717342606,-0.001001766676688897,0.0010738604083583294
42.596,0.39685669482492225,0.00024131209191494886,-0.0010017392433628973,0.0010868169132547036
42.629,0.4001544615558531,0.00024489926023755755,-0.0010017183127894354,0.0010977151925221763
42.662,0.40345282227059825,0.000248521634713961,-0.0010017040211599479,0.0011068937339866148
42.696,0.4068517653696121,0.00025228369761091674,-0.0010016956217392715,0.0011144856827071015
42.729,0.41015135700264055,0.00025595880095469485,-0.0010016941329616773,0.0011199299076622563
42.762,0.4134515695712222,0.00025965091451298736,-0.0010017008673892137,0.001123377724483254
42.796,0.416852447436966,0.00026346552694747995,-0.0010017174446054974,0.0011248247107132235
42.829,0.420153946861659,0.00026716983411364544,-0.0010017391435067913,0.0011242527608307498
42.862,0.4234560907353003,0.0002708690370268216,-0.0010017699284585214,0.001121771320307875
42.896,0.42685898048755944,0.00027466845412993054,-0.001001810296675485,0.0011173133045595965
42.929,0.43016245303303813,0.00027833721016132864,-0.0010018533123311545,0.00111124524241332
42.962,0.4334665749380945,0.0002819817033281141,-0.0010019059289028028,0.0011036517208618906
42.996,0.4368714744655663,0.0002857061322469561,-0.0010019735313877356,0.0010944785268528598
43.029,0.4401767823298354,0.00028928734291964607,-0.0010020528439043837,0.001084566642368071
43.062,0.443482196381374,0.0002928280989004329,-0.0010021237636521942,0.0010754813584232218
43.096,0.4468873427355343,0.00029644276268806484,-0.0010021851134664021,0.0010681910748211376
43.129,0.4501916856486221,0.00029992760269104916,-0.001002244181099992,0.0010635661452618273
43.162,0.4534951469423002,0.0003033975143140675,-0.0010023059294229399,0.0010621615486122763
43.196,0.4568973811394256,0.0003069472634987729,-0.001002382134603505,0.0010668036960652383
43.229,0.46019678415258886,0.0003103433264344419,-0.0010025055176533688,0.0010904860316865704
43.262,0.46348280927189045,0.00031326337088434053,-0.0010026216926950701,0.001134613078539724
43.296,0.4668263730589025,0.00031765569916282585,-0.0010013917326777318,0.001201161534924963
43.329,0.4700999799663701,0.00032182251184937786,-0.001001926692954673,0.0012642569298879928
43.362,0.4733984440933869,0.0003259088075393273,-0.0010019975429446555,0.0012691752493808627
43.396,0.4767945162924582,0.0003302015486761853,-0.001002058990281534,0.0012802771227027434
43.429,0.48008960695728575,0.0003344095083810454,-0.001002017849738572,0.001294174148095614
43.462,0.4833843477353964,0.0003386701242197217,-0.0010019703282240881,0.0013106728215473032
43.496,0.48677918242320695,0.00034311775375106345,-0.0010019021067688566,0.0013282852075975151
43.529,0.4900746180155178,0.0003474953499036912,-0.0010018469417746798,0.0013448067492976654
43.562,0.4933705707766739,0.0003519299659886941,-0.0010018037676862192,0.0013603524536087374
43.596,0.4967669857405079,0.0003565542113158501,-0.0010017696081816053,0.0013750137682377657
43.629,0.5000640941394906,0.00036109106465963693,-0.0010017417875651004,0.0013876916619088289
43.662,0.5033617936199601,0.00036567046097744606,-0.0010017203966750376,0.0013987317315666882
43.696,0.5067600442709632,0.00037042607969567197,-0.0010017047882685225,0.0014083111671205828
43.729,0.5100589590019419,0.00037507153535009746,-0.0010016962515328048,0.0014158131777304362
43.762,0.5133584808382035,0.0003797409609690924,-0.001001693912299654,0.0014214276591091428
43.796,0.5167586365664609,0.00038457048330503227,-0.001001700040559956,0.0014251316434004662
43.829,0.5200594261468559,0.000389268810656322,-0.0010017152780177896,0.0014266779933943606
43.862,0.5233608525941771,0.00039397024223135026,-0.0010017362972024359,0.0014262762925526427
43.896,0.526762995520036,0.0003988092853190397,-0.0010017671048675979,0.0014238591204158658
43.929,0.5300657353066717,0.00040349524501209663,-0.0010018059249178,0.0014196621967965746
43.962,0.5333691328240467,0.00040816324494701505,-0.0010018481903721725,0.0014137330341152177
43.996,0.5367733138141502,0.00041294803007370227,-0.0010019012113077035,0.0014060115495567677
44.029,0.5400780090237519,0.0004175630205320358,-0.001001965466599801,0.0013971781715881792
44.062,0.5433832651524827,0.0004221453521312804,-0.0010020437755446088,0.001387304305431942
44.096,0.5467888606187857,0.0004268245233491371,-0.0010021186772634534,0.001377711719315315
