time,x,y,z,theta
32.866,-1.4254003117743046e-05,1.4053263791732004e-05,-0.001001701249311756,0.00021426162442663818
32.9,-1.4256434489168853e-05,1.4067783695219653e-05,-0.0010017012493636589,0.0002144911015349497
32.933,-1.4258794362673795e-05,1.4081876599673793e-05,-0.0010017012494140422,0.0002147138302250291
32.966,-1.426115424899661e-05,1.4095969560265576e-05,-0.0010017012494644047,0.00021493655981058113
33.0,-1.4263585660412564e-05,1.4110489638872003e-05,-0.0010017012495163145,0.00021516603971239882
33.033,-1.4265945572733679e-05,1.4124582713299804e-05,-0.0010017012495666805,0.00021538877111390413
33.066,-1.4268305497874834e-05,1.4138675843888779e-05,-0.0010017012496170673,0.00021561150341123953
33.1,-1.427073694929221e-05,1.4153196097662339e-05,-0.0010017012496689702,0.00021584098610729605
33.133,-1.42730969004321e-05,1.41672893420767e-05,-0.0010017012497193604,0.00021606372022042557
33.166,-1.4275456864390728e-05,1.4181382642653472e-05,-0.0010017012497697333,0.00021628645522940584
33.2,-1.4277888355804756e-05,1.4195903071576226e-05,-0.0010017012498216432,0.00021651594071943347
33.233,-1.4280248345764721e-05,1.4209996485990829e-05,-0.001001701249872023,0.00021673867754439644
33.266,-1.4282608348543425e-05,1.4224089956548783e-05,-0.0010017012499223994,0.00021696141526492127
33.3,-1.4285039879948468e-05,1.4238610560591577e-05,-0.0010017012499743023,0.00021719090354848058
33.333,-1.4287399908725906e-05,1.4252704144969112e-05,-0.0010017012500246857,0.00021741364308471535
33.366,-1.4289759950324252e-05,1.4266797785519262e-05,-0.001001701250075069,0.00021763638351695474
33.4,-1.429219152173115e-05,1.4281318564740015e-05,-0.0010017012501269788,0.00021786587459492592
33.433,-1.4294551589328231e-05,1.4295412319112182e-05,-0.0010017012501773483,0.00021808861684291373
33.466,-1.4296911669744918e-05,1.4309506129649826e-05,-0.001001701250227742,0.00021831135998679984
33.5,-1.4299343281148902e-05,1.4324027084027362e-05,-0.0010017012502796623,0.00021854085385886277
33.533,-1.4301703387564757e-05,1.4338121008383327e-05,-0.0010017012503300386,0.00021876359881844304
33.566,-1.430406350680152e-05,1.4352214988895843e-05,-0.0010017012503804254,0.00021898634467378686
33.6,-1.4306495158209961e-05,1.4366736118449329e-05,-0.0010017012504323353,0.00021921584134023674
33.633,-1.4308855303447627e-05,1.438083021280505e-05,-0.0010017012504827255,0.00021943858901165235
33.666,-1.4311215461503164e-05,1.439492436330046e-05,-0.0010017012505331088,0.00021966133757857716
33.7,-1.4313647152910426e-05,1.440944566798379e-05,-0.0010017012505850256,0.0002198908370387162
33.733,-1.4316007336974673e-05,1.4423539932356011e-05,-0.001001701250635409,0.00022011358742222439
33.766,-1.4318367533852454e-05,1.4437634252841823e-05,-0.0010017012506857957,0.0002203363387008464
33.8,-1.4320799265253766e-05,1.4452155732671533e-05,-0.0010017012507377056,0.0002205658409549298
33.833,-1.4323159488146327e-05,1.4466250167077273e-05,-0.0010017012507881028,0.00022078859405078944
33.866,-1.4325519723848087e-05,1.4480344657561306e-05,-0.001001701250838486,0.00022101134804122953
33.9,-1.4327951495248653e-05,1.4494866312547407e-05,-0.0010017012508903855,0.0002212408530894099
33.929,-1.4330311756965627e-05,1.4508960916953855e-05,-0.0010017012509407862,0.0002214636088971273
33.966,-1.4332672031490065e-05,1.4523055577426912e-05,-0.00100170125099118,0.00022168636559924914
34.0,-1.433510384289162e-05,1.4537577407562074e-05,-0.0010017012510430898,0.00022191587344141692
34.033,-1.4337464143437343e-05,1.4551672182004385e-05,-0.0010017012510934835,0.00022213863196152728
34.066,-1.4339824456783591e-05,1.4565767012471425e-05,-0.0010017012511438772,0.00022236139137540747
34.1,-1.43422563081857e-05,1.4580289017748576e-05,-0.0010017012511958079,0.0002225909020114599
34.133,-1.434461664755974e-05,1.4594383962207887e-05,-0.0010017012512461912,0.00022281366324367952
34.166,-1.434697699973517e-05,1.4608478962709805e-05,-0.0010017012512965745,0.00022303642536994098
34.2,-1.4349408891136967e-05,1.4623001143120224e-05,-0.0010017012513485017,0.000223265938799747
34.233,-1.4351769269335419e-05,1.4637096257598496e-05,-0.0010017012513989024,0.000223488702744107
34.266,-1.4354129660341768e-05,1.4651191428138436e-05,-0.0010017012514492891,0.0002237114675827994
34.3,-1.4356561591742385e-05,1.4665713783691347e-05,-0.001001701251501206,0.00022394098380650208
34.333,-1.435892200876655e-05,1.4679809068157318e-05,-0.0010017012515516066,0.00022416375046253209
34.366,-1.4361282438601648e-05,1.4693904408717325e-05,-0.0010017012516020107,0.00022438651801338604
34.4,-1.4363714410010192e-05,1.4708426939450338e-05,-0.0010017012516539206,0.00022461603703155623
34.433,-1.4366074865857035e-05,1.472252239390164e-05,-0.0010017012517043108,0.00022483880639922476
34.466,-1.4368435334520015e-05,1.473661790448228e-05,-0.001001701251754708,0.00022506157666224964
34.5,-1.4370867345930415e-05,1.4751140610363732e-05,-0.0010017012518066422,0.00022529109847441205
34.533,-1.4373227840602538e-05,1.4765236234814922e-05,-0.0010017012518570186,0.0002255138705539391
34.566,-1.4375588348097736e-05,1.477933191543461e-05,-0.001001701251907433,0.00022573664352941835
34.6,-1.4378020399518233e-05,1.4793854796517454e-05,-0.0010017012519593603,0.00022596616813637735
34.633,-1.4380380933016936e-05,1.4807950590967914e-05,-0.001001701252009761,0.00022618894292775557
34.666,-1.4382741479337414e-05,1.4822046441579203e-05,-0.0010017012520601581,0.00022641171861497258
34.7,-1.4385173570771043e-05,1.4836569497873779e-05,-0.0010017012521120958,0.00022664124601688652
34.733,-1.4387534143101531e-05,1.4850665462344346e-05,-0.001001701252162493,0.0002268640235204354
34.766,-1.4389894728249891e-05,1.48647614829566e-05,-0.001001701252212897,0.00022708680191953405
34.8,-1.439232685969058e-05,1.4879284714436729e-05,-0.0010017012522648278,0.00022731633211600785
34.831,-1.4394687470855455e-05,1.4893380848956028e-05,-0.0010017012523152041,0.00022753911233216475
34.866,-1.439704809483083e-05,1.4907477039564197e-05,-0.0010017012523656256,0.00022776189344306922
34.9,-1.4399480266277277e-05,1.4922000446201716e-05,-0.0010017012524175528,0.00022799142643368123
34.933,-1.4401840916276106e-05,1.493609675077516e-05,-0.0010017012524679639,0.00022821420936252766
34.966,-1.4404201579082399e-05,1.4950193111390627e-05,-0.0010017012525183576,0.00022843699318541533
35.0,-1.4406633790529835e-05,1.4964716693162124e-05,-0.0010017012525702813,0.00022866652896981257
35.033,-1.4408994479364785e-05,1.4978813167789013e-05,-0.0010017012526206855,0.00022888931461134235
35.066,-1.4411355181006766e-05,1.4992909698462064e-05,-0.0010017012526710826,0.00022911210114697582
35.1,-1.4413787432462563e-05,1.5007433455395707e-05,-0.0010017012527230203,0.00022934163972558556
35.133,-1.4416148160127998e-05,1.502153010004085e-05,-0.0010017012527734417,0.00022956442807926783
35.166,-1.4418508900610437e-05,1.5035626800787005e-05,-0.0010017012528238424,0.0002297872173278849
35.2,-1.442094119207286e-05,1.5050150732900713e-05,-0.00100170125287578,0.00023001675870098308
35.233,-1.4423301958568346e-05,1.50642475475424e-05,-0.001001701252926191,0.00023023954976649047
35.266,-1.4425662737886907e-05,1.5078344418353455e-05,-0.0010017012529765848,0.00023046234172796883
35.3,-1.4428095069367666e-05,1.5092868525682115e-05,-0.0010017012530285224,0.00023069188589608605
35.333,-1.44304558746919e-05,1.5106965510316379e-05,-0.001001701253078923,0.000230914679673362
35.366,-1.4432816692840512e-05,1.5121062551122872e-05,-0.001001701253129341,0.00023113747434665304
35.4,-1.4435249064337005e-05,1.5135586833679047e-05,-0.0010017012531812822,0.00023136702130998075
35.433,-1.4437609908493458e-05,1.514968398832819e-05,-0.0010017012532316828,0.00023158981779936453
35.466,-1.4439970765474288e-05,1.5163781199140868e-05,-0.0010017012532820939,0.00023181261518463356
35.5,-1.4442403176987816e-05,1.5178305656911956e-05,-0.0010017012533340315,0.0002320421649429846
35.533,-1.4444764059990366e-05,1.5192402981661996e-05,-0.001001701253384439,0.00023226496414578172
35.566,-1.4447124955799945e-05,1.5206500362473898e-05,-0.0010017012534348502,0.0002324877642429243
35.6,-1.4449557407319232e-05,1.522102499538961e-05,-0.0010017012534867947,0.00023271731679523662
35.633,-1.445191832916094e-05,1.5235122490207014e-05,-0.0010017012535372127,0.000232940118710942
35.666,-1.4454279263809242e-05,1.5249220041070355e-05,-0.0010017012535876273,0.0002331629215207518
35.7,-1.4456711755338192e-05,1.526374484914754e-05,-0.0010017012536395684,0.00023339247686728244
35.733,-1.445907271601949e-05,1.5277842514006816e-05,-0.0010017012536899829,0.00023361528149551153
35.766,-1.4461433689511721e-05,1.5291940234958962e-05,-0.001001701253740401,0.0002338380870185572
35.8,-1.4463866221052935e-05,1.5306465218210304e-05,-0.001001701253792342,0.00023406764515950063
35.833,-1.446622722056732e-05,1.5320563053090347e-05,-0.001001701253842753,0.00023429045249993708
35.866,-1.4468588232903479e-05,1.533466094412099e-05,-0.0010017012538931745,0.00023451326073606522
35.9,-1.4471020804463896e-05,1.5349186102598828e-05,-0.001001701253945119,0.00023474282167221678
35.933,-1.4473381842810065e-05,1.536328410747408e-05,-0.0010017012539955267,0.00023496563172447596
35.966,-1.4475742893981479e-05,1.537738216852252e-05,-0.0010017012540459516,0.00023518844267277
36.0,-1.4478175505568906e-05,1.5391907502267224e-05,-0.0010017012540978823,0.00023541800640474307
36.033,-1.448053658275857e-05,1.540600567722707e-05,-0.001001701254148328,0.0002356408191701802
36.066,-1.4482897672765237e-05,1.5420103908285183e-05,-0.0010017012541987148,0.00023586363283051778
36.1,-1.448533032436753e-05,1.5434629417226338e-05,-0.001001701254250694,0.00023609319935725002
36.133,-1.4487691440400689e-05,1.544872776224392e-05,-0.0010017012543010913,0.00023631601483546142
36.166,-1.4490052569239575e-05,1.5462826163313073e-05,-0.0010017012543515162,0.0002365388312078669
36.2,-1.4492485260852398e-05,1.5477351847401825e-05,-0.0010017012544034504,0.00023676840052861962
36.233,-1.4494846415731653e-05,1.5491450362517832e-05,-0.0010017012544538753,0.0002369912187202242
36.266,-1.4497207583420973e-05,1.5505548933695775e-05,-0.0010017012545042933,0.0002372140378061811
36.3,-1.449964031504606e-05,1.5520074792957767e-05,-0.0010017012545562448,0.00023744360992134438
36.333,-1.4502001508761003e-05,1.5534173478083512e-05,-0.0010017012546066732,0.00023766643082500134
36.366,-1.4504362715300756e-05,1.5548272219360576e-05,-0.0010017012546570843,0.00023788925262436332
36.4,-1.4506795486947648e-05,1.556279825385471e-05,-0.0010017012547090462,0.00023811882753483466
36.433,0.00043565743954262093,1.575917604715438e-05,-0.001001344746112326,0.0002411074100065999
36.466,0.001763337107133087,1.604523179116605e-05,-0.0010013933689234401,0.00024545471994677785
36.5,0.0040508407697105765,1.6486200933528314e-05,-0.001001489685046958,0.00025215035190900723
36.533,0.007127373830876152,1.7105232681229573e-05,-0.001001837418670968,0.0002591536676882098
36.566,0.010429863722603037,1.7921789405061786e-05,-0.001001790259793127,0.0002560493363202291
36.6,0.013833045088604827,1.8772952733194386e-05,-0.0010018279388867533,0.00025098594485413635
36.633,0.01713679724409079,1.9577600802827894e-05,-0.0010018740061038534,0.0002444141813713154
36.666,0.020441191019876525,2.035571066548411e-05,-0.0010019317791935024,0.00023639989208568818
36.7,0.023846350610237814,2.1124986006168497e-05,-0.0010020056556863596,0.0002269290399959712
36.733,0.027151793439081223,2.1835133948852447e-05,-0.0010020859503310706,0.00021721222528867833
36.766,0.03045706847692348,2.2507558618214453e-05,-0.001002149182696952,0.00020913479109907406
36.8,0.03386196509609584,2.31724944478626e-05,-0.0010022099309815458,0.00020302679666200853
36.833,0.03716596919899745,2.3799076158109276e-05,-0.0010022697075371574,0.00019983760870487334
36.866,0.04046896016192611,2.4415976809937064e-05,-0.0010023347021170873,0.00020056886477337827
36.9,0.04387035628439369,2.503667621932317e-05,-0.0010024252449315103,0.00020840533758453787
36.933,0.0471668684028617,2.5585783279173008e-05,-0.0010025870435990333,0.00021673036799195187
36.966,0.050437030065822445,2.563879380585508e-05,-0.0010023012709481152,0.0002175358741659904
37.0,0.053779704574737644,2.704695120108229e-05,-0.0010013590239184578,0.0002388613988939162
37.033,0.05707459147611731,2.7817562386139277e-05,-0.001002328789721698,0.0002505480746060707
37.066,0.060369688326385826,2.8608231338013627e-05,-0.0010021346677537846,0.00026253623820963725
37.1,0.06376473065228938,2.9488655116851283e-05,-0.0010020355808624433,0.00027588369598092886
37.133,0.06705965990669453,3.040617861673298e-05,-0.0010020025194831354,0.0002897932977678904
37.166,0.07035447601973449,3.137548335426379e-05,-0.001001947204467741,0.0003044880748546
37.2,0.07374952357165465,3.239246507090917e-05,-0.0010018812090558903,0.00031990409588781514
37.233,0.07704518298561608,3.341394532856446e-05,-0.0010018285167732906,0.00033538683829424296
37.266,0.08034136865555348,3.4503871489940995e-05,-0.0010017884181234941,0.00035064692794034097
37.3,0.08373803537258315,3.569889765401985e-05,-0.0010017560657014195,0.00036482217345770685
37.333,0.08703539591737965,3.6905409127382485e-05,-0.0010017327258763885,0.0003769861294508761
37.366,0.0903333484261956,3.815140651508707e-05,-0.001001712576654247,0.00038747543783404086
37.4,0.09373186289310229,3.94700765848783e-05,-0.0010017015822501238,0.0003964739513805887
37.433,0.09703103604032262,4.0776736319086145e-05,-0.0010016947563915996,0.0004033609433073199
37.466,0.1003308219498431,4.210512471454076e-05,-0.001001695115670758,0.0004083203206380057
37.5,0.1037312539763277,4.3489022761560225e-05,-0.0010017050098033511,0.00041132699304727256
37.533,0.10703231584209684,4.484022594491055e-05,-0.0010017229689851803,0.000412219009626151
37.566,0.11033401751130235,4.619051844407218e-05,-0.0010017475629967437,0.00041117062357246746
37.6,0.1137364469854799,4.757442639298162e-05,-0.0010017824673043962,0.000408120872942257
37.633,0.11703946870789333,4.890366005933472e-05,-0.0010018234419625245,0.0004033326831975313
37.666,0.12034314772745147,5.021217590161409e-05,-0.0010018682308827742,0.0003968926267354239
37.7,0.12374761130135126,5.1533130228886204e-05,-0.0010019264986313968,0.0003887211943960351
37.733,0.12705256292746378,5.2784128130192296e-05,-0.001001996752866087,0.0003795775275652809
37.766,0.1303579833211909,5.400000618304921e-05,-0.0010020774354778175,0.00036973352866276587
37.8,0.13376345609716306,5.521186252668772e-05,-0.001002144212294203,0.0003611677732692471
37.833,0.13706826964155613,5.635994716249998e-05,-0.0010022032550980782,0.0003549442696155586
37.866,0.14037236934089156,5.7488316807025874e-05,-0.0010022627182091765,0.0003513418646600352
37.9,0.14377556964894553,5.863943363941896e-05,-0.0010023287863977874,0.00035152887164147936
37.933,0.14707714227211044,5.9720460994466264e-05,-0.0010024121734674707,0.00035979356602115563
37.966,0.15037458428734748,6.0809833652322196e-05,-0.0010025656943105192,0.00037630741485911894
38.0,0.15374817732597917,6.132436168417963e-05,-0.0010024089382883496,0.00038410657817138945
38.033,0.15699032659279544,6.331756551075317e-05,-0.0010013295017761957,0.0004142986533156368
38.066,0.16028205534867718,6.469440496314857e-05,-0.0010023777142115706,0.0004351421335675563
38.1,0.16367716131343876,6.613192816867435e-05,-0.0010021564825856144,0.00044808765580068324
38.133,0.16697238627574826,6.759364703963148e-05,-0.0010020461458967247,0.00046093665030721217
38.166,0.17026730794240316,6.910676810723602e-05,-0.0010020032215222116,0.00047656375779732906
38.2,0.17366191022158686,7.072286689508843e-05,-0.0010019475230826462,0.0004942020965811154
38.233,0.17695702949789788,7.235006108075517e-05,-0.0010018832603545004,0.0005113408287431841
38.266,0.18025261873541074,7.40367747749425e-05,-0.00100183200438686,0.0005277846340315342
38.3,0.18364863257959915,7.583304383448124e-05,-0.0010017911267647325,0.0005435818380054099
38.333,0.18694533906120903,7.762843857962169e-05,-0.0010017588408086052,0.000557503739076602
38.366,0.19024263135184724,7.947026107502287e-05,-0.0010017347253355215,0.0005698564504882176
38.4,0.19364046055330597,8.141008176383471e-05,-0.0010017140136349967,0.0005808269514547162
38.433,0.19693895863906183,8.33272483967574e-05,-0.0010017021213094487,0.0005897194790095446
38.466,0.200238062328789,8.527182509723106e-05,-0.0010016945743455373,0.0005967940155306606
38.5,0.20363777769748223,8.729845347371598e-05,-0.0010016946051243647,0.0006020714573603463
38.533,0.20693813381192996,8.928110954860752e-05,-0.0010017033858278207,0.0006051488524712977
38.566,0.21023912194447728,9.127253630567611e-05,-0.001001720743049623,0.0006062197061202252
38.6,0.21364080856735998,9.332402067408067e-05,-0.0010017451109933205,0.0006052880654958739
38.633,0.21694310138494216,9.530871858770337e-05,-0.0010017780384402493,0.0006024580327782173
38.666,0.22024604693577465,9.728035157079342e-05,-0.0010018186682490306,0.0005978159963807152
38.7,0.22364977008110348,9.929068531594137e-05,-0.0010018640081301891,0.0005912837472513869
38.733,0.22695403903224262,0.00010121601882539532,-0.0010019193461041076,0.0005834296840465886
38.766,0.23025892317417426,0.00010311122458884407,-0.001001987962313343,0.0005743446432498879
38.8,0.23366447671747803,0.00010502765924902444,-0.0010020709159650962,0.0005641158991310186
38.833,0.23696982418332024,0.00010684703505119387,-0.0010021373859955829,0.0005555458948123984
38.866,0.2402747048128582,0.0001086374332689244,-0.0010021965264764496,0.0005489912726103916
38.9,0.24367901055122035,0.00011046015530118654,-0.0010022576162371961,0.000544902646125458
38.933,0.24698222999906908,0.00011221674884181788,-0.0010023209341033408,0.0005445362250171036
38.966,0.25028402965078944,0.00011394188478438642,-0.0010024005102488992,0.0005512873696641704
39.0,0.25368209367535166,0.00011571863680267627,-0.0010025489599768816,0.000575526379979952
39.033,0.25696053147884784,0.00011675856987755652,-0.0010025161448612985,0.0005912880220250443
39.066,0.26020223043509055,0.0001195280062863158,-0.0010013385964394196,0.0006332434672350601
39.1,0.2635871396999802,0.00012175540997724729,-0.0010022748646500643,0.0006666671860166364
39.133,0.2668832441514079,0.00012390291733428263,-0.0010021270283324148,0.0006766161749833415
39.166,0.2701787829889296,0.00012611072551702092,-0.0010020578167051486,0.0006867505103016108
39.2,0.27357358550247385,0.0001284354354231967,-0.0010020070562351616,0.0007023819198156789
39.233,0.27686833240202996,0.00013074660674852365,-0.0010019554607939019,0.0007192683057563301
39.266,0.2801634059910024,0.00013311421369751678,-0.0010018901512593714,0.0007363161959096568
39.3,0.2835588120789466,0.00013561573911586783,-0.0010018360785434346,0.0007532236626360039
39.333,0.28685489002754083,0.00013810071195351721,-0.001001795372156434,0.0007685694202365866
39.366,0.29015153262626414,0.00014063744166572953,-0.0010017627477737698,0.0007825625748502696
39.4,0.2935486839666996,0.00014330011856550262,-0.001001736824624514,0.0007953692167881816
39.433,0.29684651968204123,0.0001459261007676165,-0.0010017162869552787,0.0008061118194855174
39.466,0.30014494992944873,0.00014858652127702892,-0.0010017029639789767,0.0008151353218517916
39.5,0.3035439654111271,0.00015135676011676416,-0.001001695200307115,0.0008225585723837358
39.533,0.30684362884345934,0.00015406852160651584,-0.0010016943659013552,0.000827828872607082
39.566,0.31014391439867356,0.00015679645629889746,-0.0010017021531058684,0.0008310972150322931
39.6,0.3135448686238727,0.0001596168852198026,-0.00100171939639844,0.0008323670266858307
39.633,0.31684644292293634,0.0001623551118179938,-0.001001742157871778,0.0008316240067356574
39.666,0.3201486624091656,0.00016508762279961262,-0.0010017740050248317,0.000828981864436969
